Sample	I	II	III	aVR	aVL	aVF	V1	V2	V3	V4	V5	V6
0	2071	2098	27	-2084.5	1022	1062.5	2107	2085	2081	2043	2055	2057
1	2089	2119	30	-2104	1029.5	1074.5	2131	2115	2111	2085	2093	2091
2	2103	2139	36	-2121	1033.5	1087.5	2153	2133	2140	2125	2119	2117
3	2117	2155	38	-2136	1039.5	1096.5	2169	2145	2160	2147	2147	2136
4	2128	2171	43	-2149.5	1042.5	1107	2185	2161	2177	2169	2167	2155
5	2137	2188	51	-2162.5	1043	1119.5	2201	2173	2191	2187	2187	2165
6	2139	2201	62	-2170	1038.5	1131.5	2209	2179	2197	2199	2201	2177
7	2144	2200	56	-2172	1044	1128	2211	2181	2201	2209	2209	2177
8	2144	2198	54	-2171	1045	1126	2211	2183	2201	2203	2207	2177
9	2139	2198	59	-2168.5	1040	1128.5	2209	2181	2201	2205	2203	2171
10	2141	2191	50	-2166	1045.5	1120.5	2195	2177	2192	2199	2193	2163
11	2133	2178	45	-2155.5	1044	1111.5	2183	2163	2176	2183	2177	2149
12	2125	2167	42	-2146	1041.5	1104.5	2169	2149	2160	2163	2161	2131
13	2113	2150	37	-2131.5	1038	1093.5	2155	2129	2141	2145	2145	2111
14	2109	2134	25	-2121.5	1042	1079.5	2131	2107	2119	2119	2121	2088
15	2097	2113	16	-2105	1040.5	1064.5	2105	2081	2093	2089	2089	2057
16	2077	2091	14	-2084	1031.5	1052.5	2075	2049	2064	2045	2053	2023
17	2055	2064	9	-2059.5	1023	1036.5	2051	2019	2032	2001	2019	1991
18	2037	2043	6	-2040	1015.5	1024.5	2033	2003	2013	1965	1991	1969
19	2033	2034	1	-2033.5	1016	1017.5	2025	1997	2007	1947	1979	1963
20	2025	2031	6	-2028	1009.5	1018.5	2027	1993	2003	1941	1973	1967
21	2033	2034	1	-2033.5	1016	1017.5	2027	1995	2003	1943	1973	1969
22	2032	2032	0	-2032	1016	1016	2027	1997	2003	1945	1971	1975
23	2033	2034	1	-2033.5	1016	1017.5	2033	1995	2003	1949	1975	1977
24	2030	2032	2	-2031	1014	1017	2033	1991	2001	1949	1979	1981
25	2032	2031	-1	-2031.5	1016.5	1015	2033	1993	2003	1952	1981	1983
26	2033	2031	-2	-2032	1017.5	1014.5	2029	1995	2003	1953	1985	1983
27	2033	2031	-2	-2032	1017.5	1014.5	2032	1993	2004	1953	1981	1981
28	2019	2004	-15	-2011.5	1017	994.5	2027	1987	1961	1921	1937	1953
29	2021	2000	-21	-2010.5	1021	989.5	2025	1987	1957	1921	1937	1952
30	2021	2002	-19	-2011.5	1020	991.5	2027	1987	1957	1923	1939	1953
31	2021	1999	-22	-2010	1021.5	988.5	2023	1989	1956	1923	1943	1949
32	2019	2003	-16	-2011	1017.5	993.5	2021	1987	1956	1921	1941	1949
33	2021	2004	-17	-2012.5	1019	993.5	2025	1987	1957	1915	1941	1949
34	2019	2003	-16	-2011	1017.5	993.5	2021	1981	1960	1917	1945	1949
35	2019	2001	-18	-2010	1018.5	991.5	2023	1983	1961	1915	1945	1949
36	2019	1999	-20	-2009	1019.5	989.5	2025	1987	1963	1913	1947	1949
37	2023	2003	-20	-2013	1021.5	991.5	2027	1987	1963	1917	1949	1951
38	2025	2006	-19	-2015.5	1022	993.5	2029	1987	1964	1913	1947	1955
39	2027	2010	-17	-2018.5	1022	996.5	2032	1989	1965	1917	1949	1953
40	2033	2007	-26	-2020	1029.5	990.5	2033	1991	1967	1921	1951	1952
41	2027	2006	-21	-2016.5	1024	992.5	2027	1989	1961	1923	1953	1952
42	2027	2003	-24	-2015	1025.5	989.5	2027	1987	1963	1921	1949	1949
43	2023	2003	-20	-2013	1021.5	991.5	2029	1987	1967	1921	1945	1952
44	2025	2003	-22	-2014	1023.5	990.5	2032	1991	1971	1917	1945	1952
45	2025	2006	-19	-2015.5	1022	993.5	2027	1993	1973	1920	1947	1955
46	2023	2006	-17	-2014.5	1020	994.5	2027	1993	1975	1917	1947	1953
47	2025	2009	-16	-2017	1020.5	996.5	2025	1991	1977	1917	1953	1957
48	2025	2010	-15	-2017.5	1020	997.5	2027	1993	1971	1921	1955	1957
49	2027	2011	-16	-2019	1021.5	997.5	2023	1991	1971	1915	1957	1953
50	2025	2010	-15	-2017.5	1020	997.5	2023	1991	1970	1913	1955	1953
51	2032	2006	-26	-2019	1029	990	2025	1993	1969	1913	1953	1957
52	2033	2006	-27	-2019.5	1030	989.5	2027	1995	1965	1911	1951	1959
53	2032	2007	-25	-2019.5	1028.5	991	2025	1995	1966	1913	1953	1963
54	2032	2007	-25	-2019.5	1028.5	991	2027	1995	1965	1909	1953	1963
55	2027	2012	-15	-2019.5	1021	998.5	2027	2000	1965	1907	1951	1963
56	2032	2011	-21	-2021.5	1026.5	995	2027	1995	1969	1907	1953	1963
57	2033	2014	-19	-2023.5	1026	997.5	2027	1993	1968	1905	1955	1968
58	2037	2016	-21	-2026.5	1029	997.5	2032	1993	1968	1905	1959	1963
59	2033	2013	-20	-2023	1026.5	996.5	2029	1993	1970	1913	1957	1961
60	2033	2013	-20	-2023	1026.5	996.5	2027	1993	1970	1913	1959	1961
61	2027	2014	-13	-2020.5	1020	1000.5	2023	1997	1971	1913	1959	1961
62	2032	2014	-18	-2023	1025	998	2021	2003	1971	1917	1959	1961
63	2033	2015	-18	-2024	1025.5	998.5	2023	2005	1971	1913	1959	1963
64	2033	2016	-17	-2024.5	1025	999.5	2019	2005	1969	1913	1959	1965
65	2032	2018	-14	-2025	1023	1002	2025	2003	1971	1913	1965	1963
66	2033	2016	-17	-2024.5	1025	999.5	2027	2005	1972	1915	1965	1961
67	2027	2018	-9	-2022.5	1018	1004.5	2032	2007	1971	1917	1963	1961
68	2025	2014	-11	-2019.5	1018	1001.5	2033	2005	1975	1921	1959	1965
69	2029	2016	-13	-2022.5	1021	1001.5	2033	2003	1976	1915	1961	1963
70	2025	2014	-11	-2019.5	1018	1001.5	2033	2003	1977	1920	1968	1963
71	2032	2018	-14	-2025	1023	1002	2033	2003	1977	1915	1969	1963
72	2033	2018	-15	-2025.5	1024	1001.5	2033	2005	1973	1915	1969	1968
73	2035	2018	-17	-2026.5	1026	1000.5	2033	2011	1975	1923	1971	1969
74	2033	2018	-15	-2025.5	1024	1001.5	2032	2013	1979	1921	1971	1967
75	2029	2014	-15	-2021.5	1022	999.5	2032	2017	1979	1921	1969	1963
76	2032	2012	-20	-2022	1026	996	2032	2017	1979	1921	1971	1963
77	2028	2016	-12	-2022	1020	1002	2033	2017	1979	1921	1971	1964
78	2032	2019	-13	-2025.5	1022.5	1003	2033	2017	1982	1921	1973	1967
79	2032	2022	-10	-2027	1021	1006	2033	2017	1983	1923	1971	1967
80	2032	2019	-13	-2025.5	1022.5	1003	2033	2013	1983	1923	1971	1968
81	2033	2018	-15	-2025.5	1024	1001.5	2037	2016	1983	1925	1969	1969
82	2193	2254	61	-2223.5	1066	1157.5	2235	2249	2328	2357	2299	2272
83	2181	2237	56	-2209	1062.5	1146.5	2217	2224	2296	2333	2273	2237
84	2161	2202	41	-2181.5	1060	1121.5	2185	2185	2244	2273	2225	2183
85	2131	2160	29	-2145.5	1051	1094.5	2145	2135	2177	2191	2157	2123
86	2103	2115	12	-2109	1045.5	1063.5	2105	2089	2105	2105	2087	2061
87	2069	2078	9	-2073.5	1030	1043.5	2077	2051	2047	2033	2027	2016
88	2053	2047	-6	-2050	1029.5	1020.5	2061	2027	2009	1977	1987	1987
89	2035	2026	-9	-2030.5	1022	1008.5	2043	2009	1979	1941	1955	1961
90	2027	2010	-17	-2018.5	1022	996.5	2029	1991	1958	1911	1931	1941
91	2017	1995	-22	-2006	1019.5	986.5	2019	1979	1947	1889	1909	1927
92	2017	1990	-27	-2003.5	1022	981.5	2013	1977	1941	1883	1905	1923
93	2021	1990	-31	-2005.5	1026	979.5	2013	1979	1940	1881	1901	1925
94	2017	1994	-23	-2005.5	1020	985.5	2013	1981	1941	1885	1907	1927
95	2018	1994	-24	-2006	1021	985	2017	1985	1943	1889	1909	1928
96	2017	1998	-19	-2007.5	1018	989.5	2017	1985	1942	1891	1905	1929
97	2019	2000	-19	-2009.5	1019	990.5	2019	1987	1945	1891	1907	1927
98	2019	1999	-20	-2009	1019.5	989.5	2019	1985	1942	1893	1905	1927
99	2021	1998	-23	-2009.5	1022	987.5	2017	1985	1945	1891	1911	1928
100	2017	1995	-22	-2006	1019.5	986.5	2016	1987	1947	1889	1909	1929
101	2019	1996	-23	-2007.5	1021	986.5	2017	1989	1945	1891	1909	1929
102	2017	1994	-23	-2005.5	1020	985.5	2017	1989	1947	1893	1911	1931
103	2017	1997	-20	-2007	1018.5	988.5	2015	1991	1947	1899	1915	1931
104	2021	1998	-23	-2009.5	1022	987.5	2017	1991	1947	1893	1915	1931
105	2021	1999	-22	-2010	1021.5	988.5	2017	1989	1946	1895	1915	1931
106	2023	2002	-21	-2012.5	1022	990.5	2017	1987	1949	1893	1913	1929
107	2019	1999	-20	-2009	1019.5	989.5	2017	1985	1947	1895	1909	1931
108	2023	1997	-26	-2010	1024.5	985.5	2017	1985	1947	1893	1907	1933
109	2019	1995	-24	-2007	1021.5	985.5	2017	1983	1949	1897	1907	1936
110	2021	1995	-26	-2008	1023.5	984.5	2017	1985	1947	1893	1911	1936
111	2019	1995	-24	-2007	1021.5	985.5	2019	1985	1950	1897	1915	1933
112	2017	1995	-22	-2006	1019.5	986.5	2025	1989	1949	1895	1913	1935
113	2017	1994	-23	-2005.5	1020	985.5	2025	1989	1949	1895	1917	1933
114	2021	1994	-27	-2007.5	1024	983.5	2023	1989	1950	1897	1915	1933
115	2025	1995	-30	-2010	1027.5	982.5	2023	1983	1947	1895	1917	1935
116	2019	1998	-21	-2008.5	1020	988.5	2021	1983	1949	1893	1917	1937
117	2020	1998	-22	-2009	1021	988	2017	1987	1952	1893	1921	1933
118	2017	1999	-18	-2008	1017.5	990.5	2017	1991	1955	1893	1924	1935
119	2019	1999	-20	-2009	1019.5	989.5	2019	1987	1955	1893	1923	1937
120	2019	1998	-21	-2008.5	1020	988.5	2019	1987	1954	1897	1925	1935
121	2023	1999	-24	-2011	1023.5	987.5	2019	1985	1954	1899	1923	1937
122	2025	1999	-26	-2012	1025.5	986.5	2021	1989	1952	1901	1923	1939
123	2025	1999	-26	-2012	1025.5	986.5	2023	1987	1949	1904	1927	1943
124	2025	1999	-26	-2012	1025.5	986.5	2021	1991	1952	1899	1927	1941
125	2021	1999	-22	-2010	1021.5	988.5	2019	1993	1952	1901	1925	1939
126	2025	2002	-23	-2013.5	1024	989.5	2019	1991	1954	1905	1927	1939
127	2023	2002	-21	-2012.5	1022	990.5	2021	1993	1955	1905	1927	1941
128	2021	2004	-17	-2012.5	1019	993.5	2023	1993	1957	1907	1927	1944
129	2023	2006	-17	-2014.5	1020	994.5	2025	1993	1957	1909	1927	1947
130	2023	2011	-12	-2017	1017.5	999.5	2021	1991	1957	1909	1927	1947
131	2023	2014	-9	-2018.5	1016	1002.5	2019	1987	1957	1909	1927	1945
132	2021	2012	-9	-2016.5	1015	1001.5	2017	1989	1955	1909	1927	1945
133	2021	2010	-11	-2015.5	1016	999.5	2023	1991	1958	1911	1931	1947
134	2021	2011	-10	-2016	1015.5	1000.5	2025	1991	1954	1911	1931	1947
135	2019	2003	-16	-2011	1017.5	993.5	2021	1995	1945	1893	1923	1937
136	2019	2003	-16	-2011	1017.5	993.5	2021	1993	1941	1889	1921	1936
137	2017	2004	-13	-2010.5	1015	995.5	2023	1993	1939	1889	1915	1936
138	2017	1999	-18	-2008	1017.5	990.5	2025	1993	1944	1889	1921	1937
139	2017	2000	-17	-2008.5	1017	991.5	2027	1993	1945	1893	1921	1939
140	2019	1998	-21	-2008.5	1020	988.5	2027	1993	1941	1893	1921	1937
141	2017	2002	-15	-2009.5	1016	993.5	2027	1991	1942	1897	1925	1939
142	2017	2003	-14	-2010	1015.5	994.5	2029	1991	1947	1897	1927	1941
143	2017	2006	-11	-2011.5	1014	997.5	2032	1995	1951	1897	1929	1945
144	2023	2007	-16	-2015	1019.5	995.5	2032	1995	1950	1904	1931	1945
145	2025	2006	-19	-2015.5	1022	993.5	2033	2001	1948	1905	1931	1947
146	2023	2010	-13	-2016.5	1018	998.5	2037	2001	1952	1905	1931	1949
147	2025	2011	-14	-2018	1019.5	998.5	2039	2001	1952	1905	1937	1953
148	2025	2014	-11	-2019.5	1018	1001.5	2041	2003	1953	1909	1939	1957
149	2029	2015	-14	-2022	1021.5	1000.5	2041	2007	1956	1915	1947	1961
150	2025	2019	-6	-2022	1015.5	1006.5	2045	2005	1961	1923	1947	1968
151	2033	2023	-10	-2028	1021.5	1006.5	2049	2005	1966	1926	1951	1973
152	2029	2026	-3	-2027.5	1016	1011.5	2051	2013	1971	1937	1955	1981
153	2037	2031	-6	-2034	1021.5	1012.5	2056	2017	1978	1941	1963	1987
154	2037	2030	-7	-2033.5	1022	1011.5	2061	2021	1983	1945	1963	1993
155	2041	2034	-7	-2037.5	1024	1013.5	2065	2029	1994	1957	1971	2001
156	2043	2038	-5	-2040.5	1024	1016.5	2067	2033	1999	1961	1979	2005
157	2045	2046	1	-2045.5	1022	1023.5	2071	2037	2008	1971	1996	2011
158	2047	2050	3	-2048.5	1022	1026.5	2075	2041	2014	1977	2001	2014
159	2051	2058	7	-2054.5	1022	1032.5	2081	2043	2023	1987	2005	2017
160	2057	2060	3	-2058.5	1027	1031.5	2089	2049	2034	2000	2015	2029
161	2059	2066	7	-2062.5	1026	1036.5	2093	2059	2043	2009	2023	2041
162	2067	2074	7	-2070.5	1030	1040.5	2097	2065	2051	2019	2035	2047
163	2073	2079	6	-2076	1033.5	1042.5	2097	2073	2062	2032	2041	2057
164	2075	2086	11	-2080.5	1032	1048.5	2103	2081	2072	2045	2049	2065
165	2080	2094	14	-2087	1033	1054	2109	2089	2083	2051	2065	2073
166	2081	2102	21	-2091.5	1030	1061.5	2116	2097	2091	2065	2071	2080
167	2089	2107	18	-2098	1035.5	1062.5	2128	2105	2101	2081	2079	2091
168	2096	2115	19	-2105.5	1038.5	1067	2137	2117	2111	2096	2091	2101
169	2105	2126	21	-2115.5	1042	1073.5	2144	2128	2125	2109	2107	2113
170	2105	2138	33	-2121.5	1036	1085.5	2149	2137	2139	2129	2121	2129
171	2115	2146	31	-2130.5	1042	1088.5	2157	2145	2151	2145	2133	2141
172	2121	2152	31	-2136.5	1045	1091.5	2165	2151	2163	2161	2143	2151
173	2128	2159	31	-2143.5	1048.5	1095	2169	2161	2177	2171	2153	2160
174	2131	2163	32	-2147	1049.5	1097.5	2179	2169	2189	2187	2167	2169
175	2137	2178	41	-2157.5	1048	1109.5	2193	2181	2202	2205	2183	2185
176	2149	2195	46	-2172	1051.5	1120.5	2201	2201	2227	2227	2207	2209
177	2160	2212	52	-2186	1054	1132	2217	2217	2256	2261	2231	2235
178	2176	2232	56	-2204	1060	1144	2233	2237	2287	2297	2263	2259
179	2183	2248	65	-2215.5	1059	1156.5	2247	2257	2312	2331	2291	2281
180	2199	2267	68	-2233	1065.5	1167.5	2261	2273	2331	2367	2317	2301
181	2206	2283	77	-2244.5	1064.5	1180	2275	2291	2359	2395	2339	2321
182	2217	2298	81	-2257.5	1068	1189.5	2288	2305	2383	2421	2359	2339
183	2225	2307	82	-2266	1071.5	1194.5	2293	2309	2397	2443	2371	2353
184	2227	2308	81	-2267.5	1073	1194.5	2289	2301	2393	2443	2369	2349
185	2227	2302	75	-2264.5	1076	1188.5	2283	2296	2381	2433	2357	2335
186	2217	2289	72	-2253	1072.5	1180.5	2273	2283	2365	2417	2339	2320
187	2153	2195	42	-2174	1055.5	1118.5	2225	2193	2183	2219	2199	2183
188	2153	2195	42	-2174	1055.5	1118.5	2224	2187	2181	2217	2199	2179
189	2151	2194	43	-2172.5	1054	1118.5	2213	2177	2171	2205	2189	2169
190	2145	2183	38	-2164	1053.5	1110.5	2199	2163	2158	2193	2173	2153
191	2135	2162	27	-2148.5	1054	1094.5	2183	2147	2143	2169	2155	2139
192	2123	2147	24	-2135	1049.5	1085.5	2169	2129	2128	2149	2135	2121
193	2115	2131	16	-2123	1049.5	1073.5	2149	2105	2105	2119	2113	2093
194	2097	2107	10	-2102	1043.5	1058.5	2123	2075	2080	2085	2077	2065
195	2085	2081	-4	-2083	1044.5	1038.5	2097	2047	2047	2043	2039	2032
196	2065	2055	-10	-2060	1037.5	1022.5	2073	2019	2016	2000	2003	1997
197	2051	2038	-13	-2044.5	1032	1012.5	2055	2003	1995	1969	1975	1979
198	2043	2025	-18	-2034	1030.5	1003.5	2051	1995	1983	1951	1961	1973
199	2040	2023	-17	-2031.5	1028.5	1003	2047	1993	1983	1945	1959	1976
200	2041	2023	-18	-2032	1029.5	1002.5	2047	1997	1983	1947	1961	1977
201	2035	2023	-12	-2029	1023.5	1005.5	2051	2001	1981	1953	1961	1979
202	2041	2024	-17	-2032.5	1029	1003.5	2051	2003	1983	1959	1965	1979
203	2039	2026	-13	-2032.5	1026	1006.5	2051	2005	1983	1961	1963	1979
204	2043	2026	-17	-2034.5	1030	1004.5	2049	2005	1986	1955	1967	1981
205	2043	2027	-16	-2035	1029.5	1005.5	2047	2005	1983	1957	1965	1981
206	2041	2030	-11	-2035.5	1026	1009.5	2047	2005	1983	1957	1968	1981
207	2041	2032	-9	-2036.5	1025	1011.5	2051	2007	1983	1957	1973	1983
208	2041	2031	-10	-2036	1025.5	1010.5	2051	2011	1983	1963	1971	1981
209	2041	2034	-7	-2037.5	1024	1013.5	2051	2005	1980	1961	1971	1981
210	2037	2033	-4	-2035	1020.5	1014.5	2051	2003	1980	1961	1969	1983
211	2041	2032	-9	-2036.5	1025	1011.5	2055	2001	1983	1961	1971	1983
212	2039	2034	-5	-2036.5	1022	1014.5	2053	2001	1989	1963	1971	1981
213	2041	2034	-7	-2037.5	1024	1013.5	2055	2001	1991	1963	1973	1981
214	2041	2034	-7	-2037.5	1024	1013.5	2057	2001	1993	1957	1977	1981
215	2043	2030	-13	-2036.5	1028	1008.5	2053	2000	1993	1961	1975	1981
216	2043	2030	-13	-2036.5	1028	1008.5	2055	1997	1994	1963	1979	1981
217	2041	2030	-11	-2035.5	1026	1009.5	2053	1995	1989	1968	1975	1983
218	2043	2030	-13	-2036.5	1028	1008.5	2047	1983	1983	1961	1973	1973
219	2032	1987	-45	-2009.5	1038.5	971	2021	1941	1947	1933	1927	1921
220	2007	1912	-95	-1959.5	1051	908.5	1983	1879	1875	1859	1835	1825
221	1963	1821	-142	-1892	1052.5	839.5	1943	1835	1799	1755	1709	1723
222	1947	1810	-137	-1878.5	1042	836.5	1987	1909	1843	1723	1683	1777
223	2011	1931	-80	-1971	1045.5	925.5	2117	2087	2057	1905	1885	2025
224	2137	2144	7	-2140.5	1065	1075.5	2285	2320	2377	2256	2229	2375
225	2293	2386	93	-2339.5	1100	1239.5	2469	2565	2739	2665	2639	2757
226	2457	2635	178	-2546	1139.5	1406.5	2657	2813	3105	3095	3057	3135
227	2619	2891	272	-2755	1173.5	1581.5	2841	3061	3475	3509	3473	3504
228	2777	3142	365	-2959.5	1206	1753.5	2997	3257	3823	3920	3865	3829
229	2897	3263	366	-3080	1265.5	1814.5	2985	3189	3923	4083	4083	3915
230	2879	3171	292	-3025	1293.5	1731.5	2785	2865	3652	4049	3959	3680
231	2757	2942	185	-2849.5	1286	1563.5	2489	2417	3151	3683	3585	3257
232	2587	2658	71	-2622.5	1258	1364.5	2163	1947	2581	3147	3121	2805
233	2408	2370	-38	-2389	1223	1166	1843	1499	2027	2597	2657	2391
234	2233	2098	-135	-2165.5	1184	981.5	1531	1055	1519	2081	2219	2019
235	2064	1847	-217	-1955.5	1140.5	815	1279	723	1060	1617	1819	1707
236	1947	1723	-224	-1835	1085.5	749.5	1265	771	904	1333	1591	1589
237	1913	1737	-176	-1825	1044.5	780.5	1449	1115	1075	1331	1573	1638
238	1936	1830	-106	-1883	1021	862	1733	1583	1448	1521	1689	1780
239	1973	1935	-38	-1954	1005.5	948.5	1943	1909	1792	1753	1831	1897
240	2029	2024	-5	-2026.5	1017	1009.5	2035	2001	1971	1937	1951	1957
241	2035	2023	-12	-2029	1023.5	1005.5	2035	2001	1973	1937	1951	1957
242	2035	2019	-16	-2027	1025.5	1001.5	2039	2001	1969	1937	1949	1961
243	2037	2022	-15	-2029.5	1026	1003.5	2041	2003	1969	1941	1951	1961
244	2033	2022	-11	-2027.5	1022	1005.5	2041	2007	1971	1941	1955	1965
245	2032	2023	-9	-2027.5	1020.5	1007	2037	2001	1973	1937	1955	1961
246	2029	2019	-10	-2024	1019.5	1004.5	2039	2000	1981	1939	1959	1961
247	2029	2023	-6	-2026	1017.5	1008.5	2037	2000	1981	1939	1955	1961
248	2033	2021	-12	-2027	1022.5	1004.5	2039	2001	1980	1943	1953	1961
249	2033	2020	-13	-2026.5	1023	1003.5	2043	2001	1977	1945	1953	1959
250	2035	2026	-9	-2030.5	1022	1008.5	2043	2001	1975	1943	1959	1959
251	2033	2026	-7	-2029.5	1020	1009.5	2039	2001	1973	1941	1957	1961
252	2037	2027	-10	-2032	1023.5	1008.5	2037	2001	1971	1943	1963	1963
253	2039	2026	-13	-2032.5	1026	1006.5	2039	2001	1969	1941	1963	1965
254	2033	2030	-3	-2031.5	1018	1013.5	2039	2003	1971	1947	1961	1963
255	2035	2028	-7	-2031.5	1021	1010.5	2037	2003	1971	1943	1963	1965
256	2033	2028	-5	-2030.5	1019	1011.5	2033	2001	1973	1947	1961	1961
257	2033	2028	-5	-2030.5	1019	1011.5	2033	2001	1973	1949	1961	1963
258	2033	2028	-5	-2030.5	1019	1011.5	2035	2003	1973	1949	1959	1963
259	2035	2028	-7	-2031.5	1021	1010.5	2035	2005	1972	1947	1957	1969
260	2033	2025	-8	-2029	1020.5	1008.5	2033	2003	1971	1947	1959	1971
261	2039	2026	-13	-2032.5	1026	1006.5	2033	2003	1973	1953	1961	1971
262	2037	2023	-14	-2030	1025.5	1004.5	2035	2003	1977	1953	1963	1965
263	2037	2024	-13	-2030.5	1025	1005.5	2037	2001	1978	1957	1969	1968
264	2037	2022	-15	-2029.5	1026	1003.5	2037	2001	1977	1953	1969	1969
265	2035	2022	-13	-2028.5	1024	1004.5	2039	2003	1977	1953	1971	1969
266	2035	2022	-13	-2028.5	1024	1004.5	2037	2007	1979	1955	1971	1968
267	2035	2022	-13	-2028.5	1024	1004.5	2037	2011	1979	1955	1971	1969
268	2035	2023	-12	-2029	1023.5	1005.5	2039	2009	1982	1955	1969	1973
269	2032	2023	-9	-2027.5	1020.5	1007	2039	2005	1986	1959	1965	1973
270	2033	2022	-11	-2027.5	1022	1005.5	2037	2003	1983	1959	1963	1977
271	2033	2023	-10	-2028	1021.5	1006.5	2037	2003	1983	1957	1969	1975
272	2033	2026	-7	-2029.5	1020	1009.5	2039	2005	1987	1955	1967	1971
273	2037	2030	-7	-2033.5	1022	1011.5	2041	2003	1990	1955	1969	1971
274	2037	2031	-6	-2034	1021.5	1012.5	2039	2005	1989	1961	1965	1971
275	2039	2034	-5	-2036.5	1022	1014.5	2037	2007	1986	1961	1967	1971
276	2037	2038	1	-2037.5	1018	1019.5	2037	2009	1983	1963	1965	1975
277	2041	2034	-7	-2037.5	1024	1013.5	2037	2007	1983	1963	1968	1981
278	2037	2034	-3	-2035.5	1020	1015.5	2037	2009	1983	1965	1968	1981
279	2039	2034	-5	-2036.5	1022	1014.5	2041	2011	1983	1963	1969	1979
280	2041	2031	-10	-2036	1025.5	1010.5	2041	2011	1981	1961	1969	1981
281	2037	2034	-3	-2035.5	1020	1015.5	2041	2011	1979	1961	1971	1981
282	2037	2031	-6	-2034	1021.5	1012.5	2041	2009	1981	1961	1973	1979
283	2035	2033	-2	-2034	1018.5	1015.5	2039	2009	1983	1963	1969	1979
284	2035	2034	-1	-2034.5	1018	1016.5	2039	2009	1987	1967	1969	1983
285	2035	2041	6	-2038	1014.5	1023.5	2045	2023	1993	1969	1973	1993
286	2047	2058	11	-2052.5	1018	1034.5	2065	2047	2016	1991	1995	2019
287	2065	2075	10	-2070	1027.5	1042.5	2093	2073	2043	2025	2027	2051
288	2080	2099	19	-2089.5	1030.5	1059	2119	2103	2075	2073	2067	2085
289	2097	2123	26	-2110	1035.5	1074.5	2145	2129	2107	2113	2101	2117
290	2109	2146	37	-2127.5	1036	1091.5	2163	2151	2130	2145	2129	2139
291	2121	2159	38	-2140	1041.5	1098.5	2179	2169	2149	2169	2151	2153
292	2131	2174	43	-2152.5	1044	1108.5	2193	2179	2165	2193	2171	2169
293	2139	2183	44	-2161	1047.5	1113.5	2201	2187	2173	2209	2189	2177
294	2019	1998	-21	-2008.5	1020	988.5	2001	1981	1951	1879	1913	1935
295	2023	2002	-21	-2012.5	1022	990.5	2003	1979	1949	1877	1915	1937
296	2023	2003	-20	-2013	1021.5	991.5	2001	1979	1948	1877	1915	1939
297	2019	2005	-14	-2012	1016.5	995.5	2001	1981	1947	1877	1915	1941
298	2019	2004	-15	-2011.5	1017	994.5	2005	1983	1949	1877	1915	1939
299	2019	2005	-14	-2012	1016.5	995.5	2009	1985	1952	1879	1915	1937
300	2019	2003	-16	-2011	1017.5	993.5	2007	1985	1955	1875	1917	1937
301	2016	2006	-10	-2011	1013	998	2003	1983	1953	1877	1921	1939
302	2017	2003	-14	-2010	1015.5	994.5	2005	1981	1957	1877	1919	1937
303	2017	2004	-13	-2010.5	1015	995.5	2009	1981	1957	1879	1921	1937
304	2019	2008	-11	-2013.5	1015	998.5	2007	1983	1959	1885	1917	1937
305	2023	2014	-9	-2018.5	1016	1002.5	2005	1985	1961	1885	1915	1937
306	2021	2011	-10	-2016	1015.5	1000.5	2005	1981	1963	1887	1921	1939
307	2019	2011	-8	-2015	1013.5	1001.5	2007	1979	1959	1883	1923	1939
308	2019	2010	-9	-2014.5	1014	1000.5	2011	1981	1956	1883	1921	1939
309	2019	2010	-9	-2014.5	1014	1000.5	2009	1985	1955	1883	1923	1937
310	2016	2011	-5	-2013.5	1010.5	1003	2007	1987	1957	1887	1923	1941
311	2019	2011	-8	-2015	1013.5	1001.5	2009	1985	1957	1889	1927	1941
312	2017	2012	-5	-2014.5	1011	1003.5	2009	1987	1961	1891	1927	1939
313	2021	2009	-12	-2015	1016.5	998.5	2009	1985	1961	1893	1931	1943
314	2017	2009	-8	-2013	1012.5	1000.5	2009	1989	1962	1893	1927	1941
315	2013	2010	-3	-2011.5	1008	1003.5	2007	1991	1963	1895	1927	1939
316	2013	2008	-5	-2010.5	1009	1001.5	2005	1991	1961	1889	1923	1939
317	2013	2011	-2	-2012	1007.5	1004.5	2003	1991	1961	1893	1924	1939
318	2017	2010	-7	-2013.5	1012	1001.5	2009	2000	1963	1891	1925	1941
319	2013	2011	-2	-2012	1007.5	1004.5	2009	2001	1961	1897	1925	1943
320	2019	2014	-5	-2016.5	1012	1004.5	2013	2003	1960	1897	1931	1949
321	2023	2014	-9	-2018.5	1016	1002.5	2016	2001	1965	1899	1937	1953
322	2027	2011	-16	-2019	1021.5	997.5	2017	2001	1963	1897	1937	1953
323	2025	2012	-13	-2018.5	1019	999.5	2017	2001	1969	1901	1937	1949
324	2025	2014	-11	-2019.5	1018	1001.5	2017	2001	1971	1904	1936	1947
325	2021	2014	-7	-2017.5	1014	1003.5	2019	2001	1972	1904	1937	1949
326	2025	2018	-7	-2021.5	1016	1005.5	2019	2001	1969	1905	1937	1953
327	2033	2016	-17	-2024.5	1025	999.5	2019	2000	1965	1904	1939	1953
328	2027	2014	-13	-2020.5	1020	1000.5	2017	1995	1965	1905	1941	1955
329	2032	2014	-18	-2023	1025	998	2019	1995	1967	1905	1939	1955
330	2025	2014	-11	-2019.5	1018	1001.5	2019	1995	1972	1907	1939	1955
331	2027	2010	-17	-2018.5	1022	996.5	2017	1993	1977	1905	1941	1953
332	2027	2007	-20	-2017	1023.5	993.5	2016	1991	1979	1913	1945	1953
333	2027	2007	-20	-2017	1023.5	993.5	2016	1991	1977	1913	1947	1953
334	2029	2010	-19	-2019.5	1024	995.5	2019	1993	1976	1913	1947	1953
335	2027	2014	-13	-2020.5	1020	1000.5	2021	1995	1979	1913	1945	1953
336	2033	2016	-17	-2024.5	1025	999.5	2021	2000	1979	1909	1943	1955
337	2027	2022	-5	-2024.5	1016	1008.5	2023	2001	1976	1909	1945	1957
338	2032	2017	-15	-2024.5	1023.5	1001	2025	2003	1976	1913	1943	1957
339	2029	2015	-14	-2022	1021.5	1000.5	2021	2001	1973	1915	1941	1957
340	2033	2014	-19	-2023.5	1026	997.5	2017	2001	1980	1921	1943	1957
341	2030	2014	-16	-2022	1023	999	2017	2001	1978	1915	1943	1955
342	2029	2016	-13	-2022.5	1021	1001.5	2017	2000	1977	1915	1943	1957
343	2029	2018	-11	-2023.5	1020	1003.5	2021	1995	1979	1913	1943	1959
344	2025	2018	-7	-2021.5	1016	1005.5	2025	2001	1981	1921	1943	1959
345	2025	2016	-9	-2020.5	1017	1003.5	2025	2002	1983	1921	1945	1961
346	2021	2019	-2	-2020	1011.5	1008.5	2023	2001	1983	1921	1947	1963
347	2027	2020	-7	-2023.5	1017	1006.5	2021	2001	1980	1923	1953	1961
348	2096	2137	41	-2116.5	1027.5	1089	2129	2123	2136	2139	2119	2109
349	2105	2146	41	-2125.5	1032	1093.5	2139	2133	2153	2157	2129	2121
350	2115	2154	39	-2134.5	1038	1096.5	2147	2141	2162	2171	2141	2133
351	2121	2161	40	-2141	1040.5	1100.5	2153	2147	2176	2187	2151	2145
352	2129	2170	41	-2149.5	1044	1105.5	2157	2155	2187	2201	2167	2157
353	2128	2179	51	-2153.5	1038.5	1115	2163	2167	2201	2215	2179	2169
354	2133	2186	53	-2159.5	1040	1119.5	2175	2181	2217	2235	2199	2183
355	2139	2199	60	-2169	1039.5	1129.5	2187	2199	2239	2259	2219	2205
356	2153	2218	65	-2185.5	1044	1141.5	2205	2225	2264	2297	2245	2233
357	2165	2238	73	-2201.5	1046	1155.5	2225	2241	2290	2325	2275	2259
358	2177	2251	74	-2214	1051.5	1162.5	2239	2259	2315	2363	2299	2283
359	2193	2270	77	-2231.5	1058	1173.5	2257	2275	2347	2389	2325	2307
360	2197	2286	89	-2241.5	1054	1187.5	2272	2291	2371	2419	2347	2321
361	2209	2302	93	-2255.5	1058	1197.5	2283	2309	2392	2448	2371	2339
362	2215	2310	95	-2262.5	1060	1202.5	2288	2315	2402	2471	2387	2345
363	2217	2312	95	-2264.5	1061	1203.5	2281	2309	2397	2473	2389	2339
364	2213	2304	91	-2258.5	1061	1197.5	2273	2299	2385	2457	2377	2325
365	2209	2294	85	-2251.5	1062	1189.5	2257	2288	2371	2441	2357	2307
366	2203	2283	80	-2243	1061.5	1181.5	2247	2275	2355	2417	2337	2293
367	2193	2275	82	-2234	1055.5	1178.5	2237	2265	2344	2401	2323	2287
368	2192	2267	75	-2229.5	1058.5	1171	2233	2257	2333	2385	2311	2283
369	2183	2262	79	-2222.5	1052	1170.5	2229	2249	2329	2371	2301	2276
370	2183	2250	67	-2216.5	1058	1158.5	2217	2229	2312	2355	2291	2256
371	2169	2222	53	-2195.5	1058	1137.5	2192	2193	2269	2315	2257	2215
372	2145	2182	37	-2163.5	1054	1109.5	2153	2147	2208	2245	2201	2157
373	2113	2136	23	-2124.5	1045	1079.5	2111	2105	2140	2165	2133	2096
374	2083	2090	7	-2086.5	1038	1048.5	2081	2065	2072	2085	2065	2035
375	2057	2055	-2	-2056	1029.5	1026.5	2055	2035	2025	2019	2013	1995
376	2037	2033	-4	-2035	1020.5	1014.5	2041	2017	1995	1981	1977	1965
377	2025	2015	-10	-2020	1017.5	1002.5	2025	1995	1971	1943	1953	1943
378	2009	2006	-3	-2007.5	1006	1001.5	2013	1981	1945	1915	1929	1928
379	2003	1995	-8	-1999	1005.5	993.5	2007	1975	1933	1899	1915	1921
380	2001	1987	-14	-1994	1007.5	986.5	2005	1971	1936	1891	1913	1919
381	2005	1987	-18	-1996	1011.5	984.5	2003	1969	1937	1891	1909	1919
382	2005	1990	-15	-1997.5	1010	987.5	2001	1969	1937	1895	1907	1921
383	2005	1992	-13	-1998.5	1009	989.5	2003	1969	1937	1891	1905	1923
384	2009	1991	-18	-2000	1013.5	986.5	2001	1969	1938	1889	1911	1925
385	2003	1991	-12	-1997	1007.5	989.5	2001	1971	1939	1891	1909	1921
386	2005	1991	-14	-1998	1009.5	988.5	2001	1973	1938	1891	1911	1921
387	2003	1992	-11	-1997.5	1007	990.5	2001	1977	1939	1893	1913	1923
388	2009	1995	-14	-2002	1011.5	990.5	2003	1977	1941	1893	1917	1927
389	2007	1994	-13	-2000.5	1010	990.5	2003	1977	1941	1897	1915	1929
390	2009	1994	-15	-2001.5	1012	989.5	2003	1977	1943	1899	1917	1931
391	2007	1992	-15	-1999.5	1011	988.5	2005	1979	1944	1899	1921	1931
392	2007	1995	-12	-2001	1009.5	991.5	2009	1977	1943	1904	1921	1931
393	2007	1998	-9	-2002.5	1008	994.5	2007	1977	1943	1899	1921	1929
394	2001	1999	-2	-2000	1001.5	998.5	2003	1973	1943	1899	1921	1926
395	2005	1999	-6	-2002	1005.5	996.5	2005	1975	1947	1895	1923	1923
396	2003	2002	-1	-2002.5	1002	1000.5	2009	1975	1945	1899	1921	1929
397	2009	1999	-10	-2004	1009.5	994.5	2007	1977	1944	1901	1919	1929
398	2007	1998	-9	-2002.5	1008	994.5	2009	1977	1944	1904	1917	1931
399	2007	1998	-9	-2002.5	1008	994.5	2009	1975	1943	1905	1921	1929
400	2009	1998	-11	-2003.5	1010	993.5	2009	1973	1944	1905	1923	1935
401	2011	1998	-13	-2004.5	1012	992.5	2009	1977	1945	1907	1927	1937
402	2013	1927	-86	-1970	1049.5	920.5	2101	2081	2035	1901	1895	2037
403	2145	2138	-7	-2141.5	1076	1065.5	2267	2311	2354	2245	2241	2385
404	2297	2379	82	-2338	1107.5	1230.5	2449	2557	2715	2661	2641	2763
405	2465	2634	169	-2549.5	1148	1401.5	2640	2807	3088	3091	3057	3135
406	2619	2883	264	-2751	1177.5	1573.5	2825	3057	3457	3507	3467	3501
407	2779	3131	352	-2955	1213.5	1741.5	2977	3249	3803	3920	3865	3833
408	2896	3247	351	-3071.5	1272.5	1799	2960	3177	3899	4083	4083	3909
409	2877	3150	273	-3013.5	1302	1711.5	2749	2851	3619	4037	3953	3665
410	2753	2915	162	-2834	1295.5	1538.5	2449	2401	3117	3657	3575	3243
411	2581	2634	53	-2607.5	1264	1343.5	2123	1929	2547	3123	3105	2793
412	2405	2349	-56	-2377	1230.5	1146.5	1808	1477	1999	2571	2641	2379
413	2233	2074	-159	-2153.5	1196	957.5	1491	1027	1491	2065	2205	2011
414	2071	1827	-244	-1949	1157.5	791.5	1237	707	1031	1595	1809	1705
415	1952	1705	-247	-1828.5	1099.5	729	1229	763	878	1313	1581	1587
416	1921	1718	-203	-1819.5	1062	757.5	1417	1107	1056	1312	1569	1641
417	1937	1814	-123	-1875.5	1030	845.5	1703	1573	1429	1509	1687	1784
418	1983	1920	-63	-1951.5	1023	928.5	1915	1897	1769	1744	1831	1905
419	2011	1976	-35	-1993.5	1023	970.5	2009	2019	1931	1883	1911	1953
420	2025	1998	-27	-2011.5	1026	985.5	2032	2035	1969	1927	1933	1959
421	2025	1998	-27	-2011.5	1026	985.5	2029	2021	1959	1923	1931	1953
422	2027	1997	-30	-2012	1028.5	983.5	2025	2009	1942	1911	1927	1947
423	2025	1994	-31	-2009.5	1028	981.5	2019	2001	1936	1905	1923	1941
424	2025	1998	-27	-2011.5	1026	985.5	2019	2000	1933	1905	1921	1943
425	2025	1995	-30	-2010	1027.5	982.5	2021	2001	1940	1905	1927	1943
426	2021	1999	-22	-2010	1021.5	988.5	2019	2001	1937	1905	1927	1944
427	2023	1998	-25	-2010.5	1024	986.5	2019	2001	1936	1905	1931	1945
428	2019	1999	-20	-2009	1019.5	989.5	2017	1995	1937	1909	1935	1949
429	2023	2000	-23	-2011.5	1023	988.5	2017	2000	1943	1913	1937	1949
430	2021	2002	-19	-2011.5	1020	991.5	2017	2001	1944	1913	1937	1947
431	2021	2002	-19	-2011.5	1020	991.5	2017	2001	1941	1915	1937	1948
432	2019	2002	-17	-2010.5	1018	992.5	2019	2003	1943	1913	1937	1952
433	2019	2008	-11	-2013.5	1015	998.5	2021	2007	1947	1915	1937	1953
434	2019	2014	-5	-2016.5	1012	1004.5	2021	2009	1947	1917	1943	1959
435	2025	2014	-11	-2019.5	1018	1001.5	2021	2007	1949	1923	1945	1961
436	2025	2013	-12	-2019	1018.5	1000.5	2025	2007	1952	1927	1949	1963
437	2025	2016	-9	-2020.5	1017	1003.5	2032	2011	1957	1931	1951	1965
438	2033	2019	-14	-2026	1023.5	1002.5	2033	2017	1963	1937	1953	1973
439	2033	2025	-8	-2029	1020.5	1008.5	2033	2021	1969	1943	1959	1977
440	2037	2030	-7	-2033.5	1022	1011.5	2035	2021	1973	1953	1965	1981
441	2037	2035	-2	-2036	1019.5	1016.5	2043	2027	1981	1959	1971	1985
442	2037	2035	-2	-2036	1019.5	1016.5	2043	2033	1987	1969	1975	1993
443	2043	2039	-4	-2041	1023.5	1017.5	2045	2039	1996	1971	1979	2001
444	2043	2046	3	-2044.5	1020	1024.5	2049	2047	2003	1983	1991	2007
445	2051	2047	-4	-2049	1027.5	1021.5	2051	2051	2013	1987	2001	2011
446	2053	2054	1	-2053.5	1026	1027.5	2064	2057	2019	2001	2003	2017
447	2057	2059	2	-2058	1027.5	1030.5	2069	2065	2028	2009	2011	2023
448	2059	2063	4	-2061	1027.5	1033.5	2078	2065	2041	2019	2021	2032
449	2065	2068	3	-2066.5	1031	1035.5	2085	2073	2045	2029	2029	2040
450	2069	2075	6	-2072	1031.5	1040.5	2089	2081	2053	2043	2039	2047
451	2075	2082	7	-2078.5	1034	1044.5	2091	2081	2061	2053	2046	2053
452	2081	2087	6	-2084	1037.5	1046.5	2097	2091	2073	2057	2055	2064
453	2085	2094	9	-2089.5	1038	1051.5	2101	2097	2080	2081	2067	2073
454	2091	2098	7	-2094.5	1042	1052.5	2109	2103	2088	2089	2081	2080
455	2096	2103	7	-2099.5	1044.5	1055	2115	2113	2103	2103	2089	2085
456	2037	2031	-6	-2034	1021.5	1012.5	2051	2013	2003	1969	1991	1975
457	2037	2032	-5	-2034.5	1021	1013.5	2051	2011	2003	1973	1987	1973
458	2035	2031	-4	-2033	1019.5	1013.5	2051	2012	2004	1971	1985	1973
459	2033	2034	1	-2033.5	1016	1017.5	2051	2013	2005	1971	1987	1973
460	2035	2034	-1	-2034.5	1018	1016.5	2047	2011	2007	1969	1989	1976
461	2033	2034	1	-2033.5	1016	1017.5	2051	2011	2005	1971	1989	1977
462	2033	2035	2	-2034	1015.5	1018.5	2053	2009	2003	1975	1989	1971
463	2033	2034	1	-2033.5	1016	1017.5	2057	2011	2003	1971	1991	1975
464	2037	2042	5	-2039.5	1016	1023.5	2067	2023	2012	1979	1997	1989
465	2050	2058	8	-2054	1021	1033	2087	2049	2034	2001	2017	2017
466	2065	2078	13	-2071.5	1026	1045.5	2109	2077	2065	2041	2053	2047
467	2081	2099	18	-2090	1031.5	1058.5	2135	2107	2096	2081	2097	2081
468	2101	2123	22	-2112	1039.5	1072.5	2161	2129	2127	2123	2129	2109
469	2115	2144	29	-2129.5	1043	1086.5	2177	2147	2149	2153	2161	2129
470	2121	2162	41	-2141.5	1040	1101.5	2192	2165	2169	2177	2179	2147
471	2133	2178	45	-2155.5	1044	1111.5	2203	2177	2187	2195	2197	2165
472	2139	2188	49	-2163.5	1045	1118.5	2211	2187	2198	2213	2209	2175
473	2147	2191	44	-2169	1051.5	1117.5	2213	2193	2203	2227	2217	2179
474	2145	2192	47	-2168.5	1049	1119.5	2213	2201	2206	2227	2215	2179
475	2145	2195	50	-2170	1047.5	1122.5	2209	2193	2205	2229	2219	2179
476	2145	2191	46	-2168	1049.5	1118.5	2209	2185	2202	2225	2215	2175
477	2139	2187	48	-2163	1045.5	1117.5	2201	2171	2194	2213	2206	2161
478	2133	2171	38	-2152	1047.5	1104.5	2192	2161	2179	2195	2193	2145
479	2121	2162	41	-2141.5	1040	1101.5	2173	2141	2165	2179	2171	2129
480	2113	2150	37	-2131.5	1038	1093.5	2153	2123	2145	2155	2151	2105
481	2097	2126	29	-2111.5	1034	1077.5	2131	2097	2115	2128	2123	2080
482	2085	2102	17	-2093.5	1034	1059.5	2105	2067	2079	2085	2091	2043
483	2067	2074	7	-2070.5	1030	1040.5	2077	2037	2046	2045	2053	2011
484	2051	2051	0	-2051	1025.5	1025.5	2055	2017	2019	2003	2017	1983
485	2039	2035	-4	-2037	1021.5	1015.5	2043	2007	2005	1973	1995	1973
486	2035	2031	-4	-2033	1019.5	1013.5	2041	2005	1999	1969	1989	1972
487	2039	2031	-8	-2035	1023.5	1011.5	2041	2005	1997	1965	1989	1971
488	2039	2030	-9	-2034.5	1024	1010.5	2041	2007	1997	1968	1989	1973
489	2041	2031	-10	-2036	1025.5	1010.5	2045	2011	1999	1969	1991	1975
490	2041	2030	-11	-2035.5	1026	1009.5	2041	2013	2003	1971	1991	1975
491	2045	2030	-15	-2037.5	1030	1007.5	2043	2011	2001	1969	1993	1976
492	2041	2025	-16	-2033	1028.5	1004.5	2043	2009	1997	1969	1995	1979
493	2041	2022	-19	-2031.5	1030	1001.5	2045	2009	1997	1971	1993	1979
494	2041	2026	-15	-2033.5	1028	1005.5	2045	2007	2000	1969	1995	1979
495	2039	2025	-14	-2032	1026.5	1005.5	2045	2005	2001	1969	1997	1977
496	2041	2023	-18	-2032	1029.5	1002.5	2045	2003	2003	1969	2001	1977
497	2041	2023	-18	-2032	1029.5	1002.5	2045	2005	2003	1969	1997	1975
498	2045	2023	-22	-2034	1033.5	1000.5	2045	2009	2001	1969	2001	1977
499	2045	2022	-23	-2033.5	1034	999.5	2043	2009	2000	1973	2003	1981
500	2043	2023	-20	-2033	1031.5	1001.5	2043	2009	2000	1975	2003	1979
501	2042	2026	-16	-2034	1029	1005	2043	2009	2001	1973	2001	1979
502	2041	2026	-15	-2033.5	1028	1005.5	2043	2009	2002	1969	2001	1979
503	2043	2026	-17	-2034.5	1030	1004.5	2043	2009	2005	1971	2003	1977
504	2041	2030	-11	-2035.5	1026	1009.5	2043	2011	2005	1971	2001	1977
505	2043	2029	-14	-2036	1028.5	1007.5	2041	2009	2008	1969	2001	1979
506	2037	2017	-20	-2027	1028.5	998.5	2029	1985	1990	1961	1985	1957
507	2025	1958	-67	-1991.5	1046	945.5	2000	1937	1936	1911	1923	1883
508	1987	1871	-116	-1929	1051.5	877.5	1957	1873	1860	1817	1809	1783
509	2025	2008	-17	-2016.5	1021	995.5	2032	2000	1973	1941	1949	1957
510	2021	2007	-14	-2014	1017.5	996.5	2033	2001	1971	1945	1947	1957
511	2025	2010	-15	-2017.5	1020	997.5	2032	2001	1971	1941	1949	1957
512	2025	2010	-15	-2017.5	1020	997.5	2027	2000	1975	1937	1949	1957
513	2027	2012	-15	-2019.5	1021	998.5	2027	1997	1978	1937	1953	1955
514	2032	2013	-19	-2022.5	1025.5	997	2032	2001	1979	1937	1955	1956
515	2027	2017	-10	-2022	1018.5	1003.5	2032	1995	1979	1939	1961	1959
516	2027	2016	-11	-2021.5	1019	1002.5	2033	1993	1981	1939	1959	1963
517	2025	2016	-9	-2020.5	1017	1003.5	2033	1993	1979	1943	1955	1963
518	2027	2018	-9	-2022.5	1018	1004.5	2037	1995	1981	1943	1953	1963
519	2027	2014	-13	-2020.5	1020	1000.5	2037	2000	1983	1949	1955	1963
520	2025	2018	-7	-2021.5	1016	1005.5	2041	2001	1981	1949	1953	1965
521	2023	2019	-4	-2021	1013.5	1007.5	2037	1997	1979	1947	1955	1969
522	2021	2022	1	-2021.5	1010	1011.5	2035	1997	1981	1949	1955	1969
523	2027	2020	-7	-2023.5	1017	1006.5	2032	1997	1981	1945	1955	1965
524	2025	2022	-3	-2023.5	1014	1009.5	2032	1995	1977	1947	1955	1965
525	2032	2022	-10	-2027	1021	1006	2027	1993	1980	1945	1959	1967
526	2027	2022	-5	-2024.5	1016	1008.5	2032	1995	1983	1947	1957	1967
527	2027	2022	-5	-2024.5	1016	1008.5	2033	2000	1983	1943	1959	1963
528	2032	2019	-13	-2025.5	1022.5	1003	2033	2001	1983	1945	1957	1965
529	2029	2015	-14	-2022	1021.5	1000.5	2033	2001	1980	1945	1957	1968
530	2032	2014	-18	-2023	1025	998	2032	2001	1979	1947	1959	1969
531	2032	2018	-14	-2025	1023	1002	2032	2001	1979	1951	1957	1971
532	2033	2017	-16	-2025	1024.5	1000.5	2033	2001	1983	1947	1959	1969
533	2027	2018	-9	-2022.5	1018	1004.5	2033	2001	1983	1949	1957	1969
534	2032	2019	-13	-2025.5	1022.5	1003	2033	2001	1987	1955	1959	1965
535	2027	2021	-6	-2024	1016.5	1007.5	2033	2003	1985	1953	1959	1967
536	2029	2018	-11	-2023.5	1020	1003.5	2033	2001	1983	1953	1959	1968
537	2029	2018	-11	-2023.5	1020	1003.5	2033	2005	1983	1949	1957	1969
538	2029	2018	-11	-2023.5	1020	1003.5	2035	2001	1983	1953	1959	1969
539	2032	2018	-14	-2025	1023	1002	2039	2000	1989	1953	1963	1971
540	2032	2022	-10	-2027	1021	1006	2038	2001	1992	1953	1965	1969
541	2033	2019	-14	-2026	1023.5	1002.5	2041	2001	1989	1953	1969	1969
542	2032	2023	-9	-2027.5	1020.5	1007	2041	1995	1987	1955	1971	1969
543	2033	2023	-10	-2028	1021.5	1006.5	2043	1995	1991	1959	1969	1971
544	2032	2022	-10	-2027	1021	1006	2041	1995	1993	1961	1969	1969
545	2033	2026	-7	-2029.5	1020	1009.5	2043	1997	1993	1961	1971	1971
546	2033	2027	-6	-2030	1019.5	1010.5	2043	2001	1995	1957	1973	1973
547	2033	2030	-3	-2031.5	1018	1013.5	2043	2001	1997	1959	1971	1975
548	2033	2026	-7	-2029.5	1020	1009.5	2041	2001	1999	1957	1971	1973
549	2033	2026	-7	-2029.5	1020	1009.5	2040	2003	1997	1959	1971	1971
550	2039	2030	-9	-2034.5	1024	1010.5	2037	2005	1995	1959	1971	1970
551	2039	2027	-12	-2033	1025.5	1007.5	2037	2003	1995	1963	1969	1971
552	2041	2027	-14	-2034	1027.5	1006.5	2033	2001	1997	1963	1971	1971
553	2035	2027	-8	-2031	1021.5	1009.5	2033	2001	1998	1969	1973	1971
554	2037	2027	-10	-2032	1023.5	1008.5	2033	2001	1999	1968	1971	1975
555	2033	2019	-14	-2026	1023.5	1002.5	2032	2001	2001	1968	1973	1975
556	2032	2022	-10	-2027	1021	1006	2033	2003	2002	1969	1971	1975
557	2032	2022	-10	-2027	1021	1006	2035	2003	2004	1969	1971	1977
558	2029	2023	-6	-2026	1017.5	1008.5	2033	2003	2001	1969	1969	1975
559	2035	2022	-13	-2028.5	1024	1004.5	2033	2005	2003	1968	1971	1973
560	2033	2022	-11	-2027.5	1022	1005.5	2035	2009	2003	1963	1973	1975
561	2039	2022	-17	-2030.5	1028	1002.5	2035	2011	2001	1963	1971	1979
562	2039	2019	-20	-2029	1029.5	999.5	2033	2007	1997	1963	1971	1981
563	2009	1986	-23	-1997.5	1016	981.5	1992	1985	1947	1877	1907	1926
564	2011	1986	-25	-1998.5	1018	980.5	1993	1985	1945	1873	1907	1926
565	2013	1991	-22	-2002	1017.5	984.5	1993	1991	1945	1873	1903	1927
566	2016	1995	-21	-2005.5	1018.5	987	1993	1987	1943	1873	1904	1929
567	2013	1995	-18	-2004	1015.5	988.5	1995	1985	1945	1875	1905	1929
568	2016	1987	-29	-2001.5	1022.5	979	1996	1985	1944	1875	1909	1927
569	2016	1986	-30	-2001	1023	978	1993	1987	1945	1877	1911	1927
570	2017	1983	-34	-2000	1025.5	974.5	1993	1987	1947	1875	1911	1929
571	2013	1986	-27	-1999.5	1020	979.5	1993	1987	1947	1877	1911	1929
572	2013	1990	-23	-2001.5	1018	983.5	1993	1987	1946	1879	1917	1931
573	2016	1991	-25	-2003.5	1020.5	983	1993	1987	1947	1873	1913	1931
574	2016	1993	-23	-2004.5	1019.5	985	1995	1985	1949	1877	1913	1931
575	2016	1991	-25	-2003.5	1020.5	983	1993	1985	1947	1879	1915	1931
576	2011	1994	-17	-2002.5	1014	988.5	1995	1985	1949	1885	1920	1933
577	2015	1993	-22	-2004	1018.5	985.5	1997	1985	1947	1885	1921	1933
578	2011	1991	-20	-2001	1015.5	985.5	2001	1987	1947	1887	1915	1933
579	2016	1994	-22	-2005	1019	986	2001	1987	1945	1887	1917	1933
580	2011	1995	-16	-2003	1013.5	989.5	2001	1989	1949	1887	1919	1929
581	2017	1995	-22	-2006	1019.5	986.5	2001	1987	1947	1889	1921	1929
582	2019	1995	-24	-2007	1021.5	985.5	2000	1985	1949	1889	1915	1929
583	2017	1998	-19	-2007.5	1018	989.5	2001	1985	1951	1889	1917	1930
584	2019	1999	-20	-2009	1019.5	989.5	1997	1985	1952	1885	1917	1933
585	2019	1999	-20	-2009	1019.5	989.5	1995	1991	1949	1888	1917	1933
586	2021	1997	-24	-2009	1022.5	986.5	2001	1993	1949	1889	1915	1936
587	2017	1998	-19	-2007.5	1018	989.5	2001	1993	1947	1888	1921	1937
588	2017	2000	-17	-2008.5	1017	991.5	2003	1993	1951	1887	1923	1939
589	2017	1999	-18	-2008	1017.5	990.5	2003	1991	1950	1893	1923	1939
590	2021	1999	-22	-2010	1021.5	988.5	2005	1989	1948	1889	1925	1937
591	2019	2002	-17	-2010.5	1018	992.5	2005	1993	1949	1895	1925	1939
592	2021	2003	-18	-2012	1019.5	992.5	2005	1993	1949	1895	1921	1943
593	2019	2003	-16	-2011	1017.5	993.5	2001	1991	1952	1899	1921	1943
594	2019	2000	-19	-2009.5	1019	990.5	2003	1991	1953	1897	1920	1941
595	2021	2002	-19	-2011.5	1020	991.5	2001	1993	1957	1895	1925	1939
596	2016	2001	-15	-2008.5	1015.5	993	2001	1989	1955	1897	1927	1943
597	2019	2003	-16	-2011	1017.5	993.5	2001	1993	1957	1899	1927	1943
598	2017	2000	-17	-2008.5	1017	991.5	2001	1993	1955	1899	1927	1947
599	2021	2000	-21	-2010.5	1021	989.5	2001	1993	1957	1904	1925	1945
600	2021	2000	-21	-2010.5	1021	989.5	2003	1993	1957	1899	1923	1943
601	2023	2000	-23	-2011.5	1023	988.5	2003	2000	1957	1899	1921	1941
602	2023	2002	-21	-2012.5	1022	990.5	2005	2001	1957	1897	1925	1945
603	2021	2006	-15	-2013.5	1018	995.5	2003	1997	1957	1899	1927	1949
604	2025	2004	-21	-2014.5	1023	991.5	2003	1997	1956	1897	1929	1952
605	2025	2001	-24	-2013	1024.5	988.5	2003	2000	1957	1899	1927	1949
606	2029	1999	-30	-2014	1029.5	984.5	2005	2001	1961	1897	1927	1947
607	2023	2002	-21	-2012.5	1022	990.5	2009	2001	1963	1899	1929	1952
608	2025	2003	-22	-2014	1023.5	990.5	2009	2001	1965	1904	1931	1952
609	2025	2006	-19	-2015.5	1022	993.5	2013	2001	1965	1905	1937	1952
610	2025	2006	-19	-2015.5	1022	993.5	2011	2001	1967	1909	1941	1952
611	2025	2006	-19	-2015.5	1022	993.5	2009	1995	1969	1905	1941	1949
612	2023	2006	-17	-2014.5	1020	994.5	2009	1995	1972	1907	1937	1952
613	2025	2006	-19	-2015.5	1022	993.5	2011	2000	1971	1905	1937	1953
614	2023	2003	-20	-2013	1021.5	991.5	2011	2001	1971	1905	1936	1952
615	2027	2003	-24	-2015	1025.5	989.5	2013	2003	1969	1905	1937	1952
616	2027	2019	-8	-2023	1017.5	1005.5	2039	2023	1993	1955	1955	1961
617	2025	2023	-2	-2024	1013.5	1010.5	2045	2027	1997	1961	1961	1968
618	2032	2028	-4	-2030	1018	1012	2047	2035	2002	1965	1969	1971
619	2032	2033	1	-2032.5	1015.5	1017	2047	2039	2009	1973	1969	1975
620	2039	2038	-1	-2038.5	1020	1018.5	2053	2043	2017	1981	1975	1981
621	2039	2042	3	-2040.5	1018	1022.5	2059	2047	2023	1989	1979	1987
622	2043	2046	3	-2044.5	1020	1024.5	2065	2051	2031	1995	1985	1995
623	2047	2052	5	-2049.5	1021	1028.5	2067	2055	2037	2003	1995	2000
624	2045	2055	10	-2050	1017.5	1032.5	2067	2059	2041	2011	2001	2003
625	2051	2058	7	-2054.5	1022	1032.5	2069	2067	2047	2017	2007	2009
626	2047	2061	14	-2054	1016.5	1037.5	2073	2069	2059	2025	2015	2017
627	2055	2070	15	-2062.5	1020	1042.5	2079	2081	2067	2039	2021	2023
628	2057	2075	18	-2066	1019.5	1046.5	2087	2089	2075	2051	2033	2033
629	2065	2082	17	-2073.5	1024	1049.5	2096	2097	2086	2059	2045	2043
630	2071	2087	16	-2079	1027.5	1051.5	2099	2101	2097	2075	2055	2051
631	2075	2098	23	-2086.5	1026	1060.5	2105	2105	2103	2085	2067	2059
632	2080	2102	22	-2091	1029	1062	2109	2109	2109	2099	2077	2068
633	2083	2115	32	-2099	1025.5	1073.5	2115	2117	2117	2111	2085	2081
634	2089	2124	35	-2106.5	1027	1079.5	2117	2123	2129	2123	2097	2093
635	2091	2130	39	-2110.5	1026	1084.5	2128	2133	2139	2144	2103	2105
636	2103	2138	35	-2120.5	1034	1086.5	2135	2143	2158	2161	2117	2113
637	2105	2144	39	-2124.5	1033	1091.5	2141	2149	2174	2179	2129	2129
638	2115	2151	36	-2133	1039.5	1093.5	2151	2161	2185	2195	2145	2141
639	2117	2158	41	-2137.5	1038	1099.5	2160	2169	2197	2205	2161	2149
640	2123	2166	43	-2144.5	1040	1104.5	2167	2177	2209	2224	2177	2161
641	2125	2174	49	-2149.5	1038	1111.5	2173	2185	2220	2229	2187	2175
642	2133	2186	53	-2159.5	1040	1119.5	2185	2203	2239	2249	2199	2193
643	2145	2206	61	-2175.5	1042	1133.5	2199	2225	2265	2273	2225	2215
644	2155	2226	71	-2190.5	1042	1148.5	2213	2243	2294	2303	2251	2239
645	2171	2242	71	-2206.5	1050	1156.5	2229	2265	2321	2337	2281	2261
646	2181	2258	77	-2219.5	1052	1167.5	2245	2279	2348	2377	2307	2285
647	2199	2272	73	-2235.5	1063	1172.5	2261	2295	2373	2409	2331	2309
648	2209	2287	78	-2248	1065.5	1182.5	2273	2307	2395	2435	2349	2331
649	2219	2306	87	-2262.5	1066	1196.5	2283	2321	2415	2467	2375	2347
650	2225	2310	85	-2267.5	1070	1197.5	2283	2321	2417	2481	2385	2349
651	2224	2310	86	-2267	1069	1198	2277	2315	2410	2481	2381	2336
652	2215	2296	81	-2255.5	1067	1188.5	2265	2307	2395	2461	2365	2317
653	2203	2290	87	-2246.5	1058	1188.5	2257	2291	2379	2439	2347	2301
654	2201	2282	81	-2241.5	1060	1181.5	2251	2283	2363	2416	2327	2293
655	2193	2275	82	-2234	1055.5	1178.5	2243	2273	2353	2401	2311	2285
656	2192	2267	75	-2229.5	1058.5	1171	2235	2267	2345	2391	2303	2279
657	2185	2262	77	-2223.5	1054	1169.5	2233	2257	2339	2385	2299	2273
658	2176	2249	73	-2212.5	1051.5	1161	2211	2229	2313	2355	2279	2241
659	2160	2218	58	-2189	1051	1138	2183	2193	2265	2303	2237	2193
660	2129	2180	51	-2154.5	1039	1115.5	2145	2141	2203	2231	2177	2129
661	2103	2131	28	-2117	1037.5	1079.5	2105	2097	2134	2149	2105	2065
662	2075	2094	19	-2084.5	1028	1056.5	2075	2061	2073	2067	2041	2016
663	2055	2066	11	-2060.5	1022	1038.5	2054	2033	2031	2013	1995	1979
664	2033	2043	10	-2038	1011.5	1026.5	2032	2013	2005	1973	1965	1955
665	2025	2023	-2	-2024	1013.5	1010.5	2017	1995	1975	1937	1941	1936
666	2009	2007	-2	-2008	1005.5	1002.5	2005	1987	1953	1913	1920	1921
667	2003	1998	-5	-2000.5	1004	996.5	2003	1983	1944	1895	1911	1915
668	2005	2000	-5	-2002.5	1005	997.5	2003	1983	1945	1891	1909	1917
669	2005	2002	-3	-2003.5	1004	999.5	2001	1981	1945	1891	1907	1921
670	2035	2023	-12	-2029	1023.5	1005.5	2023	1991	1995	1957	1973	1973
671	2033	2027	-6	-2030	1019.5	1010.5	2025	1991	1995	1959	1973	1973
672	2033	2027	-6	-2030	1019.5	1010.5	2027	1991	1997	1957	1973	1971
673	2035	2030	-5	-2032.5	1020	1012.5	2027	1991	1999	1959	1973	1971
674	2035	2035	0	-2035	1017.5	1017.5	2025	1993	2002	1957	1975	1973
675	2037	2032	-5	-2034.5	1021	1013.5	2025	1995	2003	1955	1977	1975
676	2041	2030	-11	-2035.5	1026	1009.5	2025	2001	2003	1955	1984	1979
677	2041	2027	-14	-2034	1027.5	1006.5	2027	2001	2001	1959	1985	1979
678	2041	2027	-14	-2034	1027.5	1006.5	2027	2001	2003	1961	1985	1979
679	2039	2027	-12	-2033	1025.5	1007.5	2029	2003	2003	1961	1981	1979
680	2041	2030	-11	-2035.5	1026	1009.5	2032	2001	2003	1961	1979	1977
681	2037	2031	-6	-2034	1021.5	1012.5	2033	2001	2003	1961	1981	1977
682	2037	2034	-3	-2035.5	1020	1015.5	2027	2001	2001	1965	1985	1977
683	2041	2035	-6	-2038	1023.5	1014.5	2029	2001	2001	1963	1981	1981
684	2037	2034	-3	-2035.5	1020	1015.5	2029	2001	2001	1969	1981	1981
685	2039	2018	-21	-2028.5	1030	998.5	2016	1973	1983	1963	1968	1955
686	2020	1963	-57	-1991.5	1038.5	953	1983	1921	1931	1913	1905	1883
687	1989	1878	-111	-1933.5	1050	883.5	1945	1857	1855	1825	1797	1779
688	1953	1803	-150	-1878	1051.5	826.5	1936	1847	1807	1727	1687	1720
689	1969	1847	-122	-1908	1045.5	862.5	2019	1968	1922	1777	1747	1855
690	2059	2011	-48	-2035	1053.5	981.5	2165	2171	2189	2033	2017	2153
691	2201	2235	34	-2218	1083.5	1134.5	2337	2411	2531	2411	2393	2521
692	2357	2480	123	-2418.5	1117	1301.5	2521	2659	2899	2835	2807	2899
693	2521	2738	217	-2629.5	1152	1477.5	2707	2905	3272	3265	3221	3273
694	2681	2987	306	-2834	1187.5	1646.5	2889	3145	3634	3675	3627	3633
695	2833	3214	381	-3023.5	1226	1797.5	2993	3257	3925	4059	3993	3901
696	2903	3247	344	-3075	1279.5	1795.5	2899	3075	3873	4083	4083	3851
697	2837	3086	249	-2961.5	1294	1667.5	2651	2693	3491	3952	3839	3521
698	2689	2830	141	-2759.5	1274	1485.5	2339	2231	2949	3491	3419	3081
699	2513	2539	26	-2526	1243.5	1282.5	2016	1771	2379	2935	2945	2640
700	2337	2258	-79	-2297.5	1208	1089.5	1701	1323	1845	2393	2487	2243
701	2169	1988	-181	-2078.5	1175	903.5	1392	885	1346	1901	2065	1883
702	2013	1778	-235	-1895.5	1124	771.5	1223	697	974	1485	1713	1643
703	1927	1710	-217	-1818.5	1072	746.5	1285	861	951	1307	1573	1593
704	1919	1756	-163	-1837.5	1041	796.5	1513	1265	1207	1377	1613	1685
705	1947	1866	-81	-1906.5	1014	892.5	1795	1705	1598	1603	1751	1827
706	1989	1953	-36	-1971	1012.5	958.5	1969	1955	1877	1817	1877	1925
707	2009	1996	-13	-2002.5	1011	991.5	2035	2033	1987	1925	1937	1955
708	2017	2011	-6	-2014	1011.5	1002.5	2045	2033	2007	1945	1947	1953
709	2017	2013	-4	-2015	1010.5	1004.5	2041	2017	1991	1935	1945	1947
710	2017	2011	-6	-2014	1011.5	1002.5	2033	2007	1981	1925	1937	1945
711	2017	2007	-10	-2012	1013.5	998.5	2029	2001	1976	1915	1933	1941
712	2017	2007	-10	-2012	1013.5	998.5	2032	1995	1973	1921	1935	1941
713	2017	2006	-11	-2011.5	1014	997.5	2029	1995	1971	1923	1937	1941
714	2017	2006	-11	-2011.5	1014	997.5	2029	2001	1973	1925	1937	1941
715	2017	2008	-9	-2012.5	1013	999.5	2029	2000	1975	1923	1937	1941
716	2015	2010	-5	-2012.5	1010	1002.5	2032	2001	1976	1927	1939	1941
717	2017	2010	-7	-2013.5	1012	1001.5	2033	2001	1977	1927	1941	1943
718	2019	2011	-8	-2015	1013.5	1001.5	2035	2000	1980	1931	1947	1945
719	2021	2014	-7	-2017.5	1014	1003.5	2033	2001	1981	1936	1947	1947
720	2023	2018	-5	-2020.5	1014	1006.5	2032	2005	1981	1936	1953	1953
721	2021	2017	-4	-2019	1012.5	1006.5	2032	2005	1983	1939	1951	1955
722	2025	2016	-9	-2020.5	1017	1003.5	2033	2009	1990	1941	1953	1955
723	2041	2019	-22	-2030	1031.5	998.5	2051	2009	1978	1961	1969	1973
724	2042	2022	-20	-2032	1031	1001	2053	2009	1977	1957	1969	1977
725	2039	2022	-17	-2030.5	1028	1002.5	2051	2009	1973	1957	1971	1976
726	2033	2022	-11	-2027.5	1022	1005.5	2051	2009	1973	1955	1971	1977
727	2032	2020	-12	-2026	1022	1004	2053	2007	1976	1957	1969	1975
728	2033	2022	-11	-2027.5	1022	1005.5	2053	2009	1979	1959	1971	1975
729	2027	2023	-4	-2025	1015.5	1009.5	2055	2011	1981	1961	1975	1977
730	2033	2025	-8	-2029	1020.5	1008.5	2051	2011	1981	1961	1977	1976
731	2033	2019	-14	-2026	1023.5	1002.5	2053	2005	1980	1957	1977	1977
732	2033	2022	-11	-2027.5	1022	1005.5	2055	2007	1979	1959	1977	1979
733	2037	2022	-15	-2029.5	1026	1003.5	2057	2005	1976	1959	1977	1981
734	2035	2023	-12	-2029	1023.5	1005.5	2057	2005	1978	1963	1975	1983
735	2035	2023	-12	-2029	1023.5	1005.5	2053	2007	1977	1959	1975	1983
736	2033	2023	-10	-2028	1021.5	1006.5	2057	2005	1971	1955	1975	1981
737	2033	2023	-10	-2028	1021.5	1006.5	2057	2007	1973	1957	1977	1979
738	2027	2023	-4	-2025	1015.5	1009.5	2059	2005	1975	1959	1975	1981
739	2032	2023	-9	-2027.5	1020.5	1007	2061	2003	1979	1959	1977	1981
740	2027	2023	-4	-2025	1015.5	1009.5	2061	2003	1981	1961	1981	1981
741	2032	2026	-6	-2029	1019	1010	2059	2003	1981	1961	1981	1979
742	2033	2026	-7	-2029.5	1020	1009.5	2059	2007	1983	1963	1985	1977
743	2033	2023	-10	-2028	1021.5	1006.5	2059	2009	1983	1969	1985	1979
744	2032	2026	-6	-2029	1019	1010	2064	2013	1987	1968	1987	1981
745	2032	2026	-6	-2029	1019	1010	2061	2017	1986	1969	1987	1983
746	2037	2032	-5	-2034.5	1021	1013.5	2064	2013	1981	1969	1991	1983
747	2035	2026	-9	-2030.5	1022	1008.5	2064	2015	1982	1971	1989	1983
748	2041	2026	-15	-2033.5	1028	1005.5	2059	2017	1983	1973	1991	1983
749	2039	2026	-13	-2032.5	1026	1006.5	2059	2017	1983	1975	1991	1983
750	2037	2027	-10	-2032	1023.5	1008.5	2057	2013	1987	1975	1989	1981
751	2033	2030	-3	-2031.5	1018	1013.5	2059	2017	1989	1975	1989	1983
752	2033	2039	6	-2036	1013.5	1022.5	2073	2033	2003	1985	1997	1999
753	2047	2055	8	-2051	1019.5	1031.5	2097	2055	2027	2011	2023	2024
754	2064	2079	15	-2071.5	1024.5	1047	2123	2083	2062	2053	2059	2059
755	2085	2110	25	-2097.5	1030	1067.5	2153	2113	2091	2095	2101	2091
756	2101	2134	33	-2117.5	1034	1083.5	2173	2137	2117	2137	2135	2117
757	2115	2154	39	-2134.5	1038	1096.5	2193	2155	2137	2167	2161	2135
758	2125	2166	41	-2145.5	1042	1103.5	2209	2169	2155	2187	2177	2150
759	2131	2176	45	-2153.5	1043	1110.5	2219	2181	2168	2209	2195	2163
760	2139	2184	45	-2161.5	1047	1114.5	2225	2187	2179	2219	2207	2171
761	2145	2193	48	-2169	1048.5	1120.5	2227	2185	2184	2225	2211	2175
762	2145	2189	44	-2167	1050.5	1116.5	2227	2185	2185	2225	2213	2175
763	2144	2190	46	-2167	1049	1118	2227	2181	2182	2225	2209	2173
764	2145	2186	41	-2165.5	1052	1113.5	2224	2179	2173	2217	2203	2165
765	2135	2179	44	-2157	1045.5	1111.5	2209	2169	2161	2209	2191	2152
766	2129	2169	40	-2149	1044.5	1104.5	2193	2153	2149	2187	2177	2133
767	2117	2154	37	-2135.5	1040	1095.5	2177	2135	2131	2161	2159	2115
768	2105	2136	31	-2120.5	1037	1083.5	2161	2113	2111	2137	2139	2089
769	2089	2110	21	-2099.5	1034	1065.5	2137	2085	2082	2099	2103	2063
770	2073	2090	17	-2081.5	1028	1053.5	2111	2055	2049	2065	2067	2029
771	2064	2063	-1	-2063.5	1032.5	1031	2081	2025	2017	2023	2029	1997
772	2041	2038	-3	-2039.5	1022	1017.5	2065	2007	1989	1989	2001	1975
773	2037	2031	-6	-2034	1021.5	1012.5	2057	2001	1982	1971	1985	1969
774	2032	2026	-6	-2029	1019	1010	2053	2001	1981	1968	1985	1969
775	2029	2027	-2	-2028	1015.5	1012.5	2053	2001	1979	1963	1987	1973
776	2027	2027	0	-2027	1013.5	1013.5	2053	2003	1979	1971	1989	1973
777	2017	1999	-18	-2008	1017.5	990.5	2019	1993	1939	1889	1937	1949
778	2019	1999	-20	-2009	1019.5	989.5	2021	1993	1941	1889	1937	1949
779	2019	2002	-17	-2010.5	1018	992.5	2019	1993	1941	1881	1937	1945
780	2019	2002	-17	-2010.5	1018	992.5	2019	1997	1939	1885	1939	1947
781	2021	2003	-18	-2012	1019.5	992.5	2017	1997	1939	1885	1939	1952
782	2019	2006	-13	-2012.5	1016	996.5	2019	2000	1940	1889	1937	1952
783	2023	2006	-17	-2014.5	1020	994.5	2021	2001	1939	1889	1937	1949
784	2022	2006	-16	-2014	1019	995	2021	1999	1944	1893	1937	1953
785	2025	2009	-16	-2017	1020.5	996.5	2019	1995	1943	1893	1937	1949
786	2023	2010	-13	-2016.5	1018	998.5	2021	1993	1944	1891	1937	1947
787	2023	2007	-16	-2015	1019.5	995.5	2023	1993	1945	1891	1937	1947
788	2021	2002	-19	-2011.5	1020	991.5	2027	1993	1943	1891	1937	1953
789	2025	2005	-20	-2015	1022.5	992.5	2033	1993	1943	1895	1937	1955
790	2025	2002	-23	-2013.5	1024	989.5	2033	1995	1941	1895	1937	1959
791	2025	2004	-21	-2014.5	1023	991.5	2035	2000	1939	1897	1941	1959
792	2025	2006	-19	-2015.5	1022	993.5	2033	1997	1939	1891	1943	1959
793	2025	2002	-23	-2013.5	1024	989.5	2033	2000	1943	1891	1943	1957
794	2027	2000	-27	-2013.5	1027	986.5	2032	1997	1946	1889	1943	1957
795	2032	1999	-33	-2015.5	1032.5	983	2033	2001	1950	1891	1943	1960
796	2033	2002	-31	-2017.5	1032	985.5	2035	1998	1949	1889	1941	1959
797	2032	2006	-26	-2019	1029	990	2035	2000	1950	1889	1943	1961
798	2027	2007	-20	-2017	1023.5	993.5	2035	1997	1952	1889	1941	1957
799	2025	2007	-18	-2016	1021.5	994.5	2033	1997	1947	1889	1943	1959
800	2021	2003	-18	-2012	1019.5	992.5	2032	1997	1947	1891	1941	1959
801	2023	2006	-17	-2014.5	1020	994.5	2033	1995	1947	1891	1943	1957
802	2023	2008	-15	-2015.5	1019	996.5	2033	1995	1945	1889	1945	1959
803	2029	2008	-21	-2018.5	1025	993.5	2035	1991	1945	1891	1947	1957
804	2029	2006	-23	-2017.5	1026	991.5	2037	1993	1945	1895	1947	1957
805	2029	2007	-22	-2018	1025.5	992.5	2041	1995	1943	1897	1943	1955
806	2033	2006	-27	-2019.5	1030	989.5	2043	1993	1941	1899	1947	1957
807	2033	2010	-23	-2021.5	1028	993.5	2041	1995	1944	1899	1946	1960
808	2035	2006	-29	-2020.5	1032	988.5	2041	1995	1951	1899	1951	1963
809	2032	2006	-26	-2019	1029	990	2041	2000	1953	1900	1951	1963
810	2033	2003	-30	-2018	1031.5	986.5	2043	1997	1952	1899	1953	1963
811	2027	2007	-20	-2017	1023.5	993.5	2043	2000	1949	1899	1951	1965
812	2033	2011	-22	-2022	1027.5	994.5	2043	1997	1947	1895	1955	1965
813	2037	2011	-26	-2024	1031.5	992.5	2043	1997	1945	1891	1955	1961
814	2035	2007	-28	-2021	1031.5	989.5	2045	1997	1947	1895	1953	1963
815	2033	2007	-26	-2020	1029.5	990.5	2043	1997	1947	1891	1953	1965
816	2033	2009	-24	-2021	1028.5	992.5	2043	2000	1947	1897	1951	1965
817	2035	2011	-24	-2023	1029.5	993.5	2045	2000	1948	1895	1951	1968
818	2033	2010	-23	-2021.5	1028	993.5	2047	2001	1949	1897	1947	1969
819	2037	2007	-30	-2022	1033.5	988.5	2045	2001	1951	1895	1949	1969
820	2033	2006	-27	-2019.5	1030	989.5	2045	2000	1953	1897	1951	1969
821	2035	2013	-22	-2024	1028.5	995.5	2043	2001	1954	1901	1955	1969
822	2035	2012	-23	-2023.5	1029	994.5	2047	2003	1955	1899	1955	1969
823	2041	2014	-27	-2027.5	1034	993.5	2045	2001	1954	1904	1953	1963
824	2043	2012	-31	-2027.5	1037	990.5	2041	2001	1953	1899	1955	1963
825	2041	2014	-27	-2027.5	1034	993.5	2041	2001	1952	1905	1955	1965
826	2043	2015	-28	-2029	1035.5	993.5	2041	2003	1953	1904	1957	1969
827	2041	2012	-29	-2026.5	1035	991.5	2043	2005	1951	1904	1955	1969
828	2041	2014	-27	-2027.5	1034	993.5	2045	2003	1952	1901	1957	1969
829	2224	2307	83	-2265.5	1070.5	1195	2279	2311	2407	2465	2393	2345
830	2224	2304	80	-2264	1072	1192	2273	2301	2400	2465	2391	2337
831	2215	2295	80	-2255	1067.5	1187.5	2261	2291	2385	2443	2373	2325
832	2209	2285	76	-2247	1066.5	1180.5	2249	2277	2367	2423	2353	2311
833	2203	2274	71	-2238.5	1066	1172.5	2243	2267	2349	2401	2339	2295
834	2195	2264	69	-2229.5	1063	1166.5	2239	2257	2339	2385	2327	2285
835	2193	2262	69	-2227.5	1062	1165.5	2235	2249	2336	2369	2321	2277
836	2185	2254	69	-2219.5	1058	1161.5	2227	2239	2325	2355	2313	2269
837	2181	2239	58	-2210	1061.5	1148.5	2209	2215	2297	2331	2289	2239
838	2161	2206	45	-2183.5	1058	1125.5	2177	2177	2244	2273	2241	2185
839	2137	2163	26	-2150	1055.5	1094.5	2139	2129	2181	2203	2177	2121
840	2105	2119	14	-2112	1045.5	1066.5	2103	2081	2111	2119	2111	2061
841	2073	2075	2	-2074	1035.5	1038.5	2075	2045	2053	2041	2043	2013
842	2049	2046	-3	-2047.5	1026	1021.5	2053	2021	2015	1981	1997	1981
843	2033	2028	-5	-2030.5	1019	1011.5	2039	2003	1987	1947	1963	1957
844	2029	2008	-21	-2018.5	1025	993.5	2025	1991	1961	1917	1941	1931
845	2017	1990	-27	-2003.5	1022	981.5	2013	1977	1941	1897	1923	1920
846	2011	1983	-28	-1997	1019.5	977.5	2007	1973	1931	1885	1913	1913
847	2007	1983	-24	-1995	1015.5	979.5	2005	1973	1931	1883	1913	1911
848	2003	1986	-17	-1994.5	1010	984.5	2003	1977	1931	1883	1913	1913
849	2005	1987	-18	-1996	1011.5	984.5	2003	1979	1932	1885	1920	1915
850	2005	1987	-18	-1996	1011.5	984.5	2003	1981	1929	1889	1915	1913
851	2011	1988	-23	-1999.5	1017	982.5	2007	1983	1931	1889	1915	1915
852	2011	1991	-20	-2001	1015.5	985.5	2009	1981	1930	1889	1917	1917
853	2007	1990	-17	-1998.5	1012	986.5	2009	1981	1933	1885	1919	1919
854	2007	1987	-20	-1997	1013.5	983.5	2009	1979	1935	1889	1917	1921
855	2011	1987	-24	-1999	1017.5	981.5	2009	1977	1933	1885	1921	1925
856	2009	1986	-23	-1997.5	1016	981.5	2007	1979	1935	1893	1919	1926
857	2013	1990	-23	-2001.5	1018	983.5	2007	1981	1935	1889	1919	1921
858	2013	1990	-23	-2001.5	1018	983.5	2005	1977	1939	1889	1921	1919
859	2011	1991	-20	-2001	1015.5	985.5	2001	1979	1941	1889	1917	1919
860	2011	1994	-17	-2002.5	1014	988.5	2001	1977	1942	1892	1921	1921
861	2011	1995	-16	-2003	1013.5	989.5	2001	1979	1945	1891	1921	1925
862	2017	1995	-22	-2006	1019.5	986.5	2003	1979	1945	1891	1921	1929
863	2013	1994	-19	-2003.5	1016	987.5	2003	1979	1944	1891	1921	1933
864	2009	1994	-15	-2001.5	1012	989.5	2001	1979	1947	1893	1923	1933
865	2009	1990	-19	-1999.5	1014	985.5	2003	1977	1946	1891	1925	1930
866	2011	1990	-21	-2000.5	1016	984.5	2009	1977	1947	1895	1925	1931
867	2011	1990	-21	-2000.5	1016	984.5	2011	1979	1947	1893	1927	1931
868	2011	1994	-17	-2002.5	1014	988.5	2009	1979	1949	1891	1925	1931
869	2011	1994	-17	-2002.5	1014	988.5	2009	1977	1953	1891	1925	1931
870	2009	1995	-14	-2002	1011.5	990.5	2011	1979	1951	1899	1925	1931
871	2017	1998	-19	-2007.5	1018	989.5	2011	1979	1950	1897	1929	1931
872	2011	1995	-16	-2003	1013.5	989.5	2013	1981	1952	1895	1933	1931
873	2017	1998	-19	-2007.5	1018	989.5	2011	1983	1953	1895	1931	1931
874	2015	1996	-19	-2005.5	1017	988.5	2013	1981	1953	1895	1925	1933
875	2016	1995	-21	-2005.5	1018.5	987	2009	1979	1949	1897	1927	1931
876	2017	1994	-23	-2005.5	1020	985.5	2005	1979	1952	1895	1927	1931
877	2017	1993	-24	-2005	1020.5	984.5	2007	1977	1955	1899	1931	1931
878	2017	1992	-25	-2004.5	1021	983.5	2009	1981	1955	1899	1937	1936
879	2016	1994	-22	-2005	1019	986	2009	1985	1955	1904	1937	1937
880	2019	1994	-25	-2006.5	1022	984.5	2011	1987	1956	1905	1935	1941
881	2017	1994	-23	-2005.5	1020	985.5	2011	1987	1954	1905	1935	1943
882	2019	1995	-24	-2007	1021.5	985.5	2013	1985	1953	1905	1931	1943
883	1921	1762	-159	-1841.5	1040	801.5	1549	1297	1221	1377	1617	1699
884	1955	1873	-82	-1914	1018.5	895.5	1819	1735	1615	1605	1755	1841
885	2000	1962	-38	-1981	1019	962	1983	1971	1885	1813	1877	1931
886	2017	2002	-15	-2009.5	1016	993.5	2037	2033	1986	1920	1933	1960
887	2025	2011	-14	-2018	1019.5	998.5	2045	2027	1995	1935	1945	1957
888	2021	2012	-9	-2016.5	1015	1001.5	2045	2011	1981	1927	1943	1947
889	2023	2012	-11	-2017.5	1017	1000.5	2041	2003	1968	1915	1939	1939
890	2019	2011	-8	-2015	1013.5	1001.5	2041	2003	1961	1907	1937	1936
891	2019	2010	-9	-2014.5	1014	1000.5	2039	2003	1959	1905	1937	1937
892	2021	2010	-11	-2015.5	1016	999.5	2037	2003	1957	1899	1937	1936
893	2019	2010	-9	-2014.5	1014	1000.5	2041	2003	1957	1899	1941	1939
894	2019	2010	-9	-2014.5	1014	1000.5	2041	2005	1959	1899	1941	1941
895	2017	2012	-5	-2014.5	1011	1003.5	2041	2005	1959	1905	1939	1945
896	2017	2010	-7	-2013.5	1012	1001.5	2041	2003	1967	1905	1943	1947
897	2017	2010	-7	-2013.5	1012	1001.5	2043	2005	1969	1911	1945	1947
898	2019	2011	-8	-2015	1013.5	1001.5	2045	2007	1971	1915	1951	1945
899	2021	2010	-11	-2015.5	1016	999.5	2047	2011	1974	1917	1951	1947
900	2025	2014	-11	-2019.5	1018	1001.5	2051	2011	1978	1923	1953	1949
901	2025	2015	-10	-2020	1017.5	1002.5	2051	2013	1979	1923	1955	1949
902	2027	2019	-8	-2023	1017.5	1005.5	2053	2017	1983	1929	1959	1953
903	2033	2019	-14	-2026	1023.5	1002.5	2051	2019	1993	1933	1965	1957
904	2032	2025	-7	-2028.5	1019.5	1009	2053	2025	1991	1939	1967	1963
905	2035	2031	-4	-2033	1019.5	1013.5	2057	2033	1995	1943	1971	1969
906	2033	2038	5	-2035.5	1014	1021.5	2059	2037	2000	1952	1977	1973
907	2035	2042	7	-2038.5	1014	1024.5	2061	2039	2006	1953	1985	1983
908	2039	2042	3	-2040.5	1018	1022.5	2065	2043	2013	1959	1993	1983
909	2043	2047	4	-2045	1019.5	1025.5	2069	2047	2019	1968	1995	1993
910	2045	2051	6	-2048	1019.5	1028.5	2077	2049	2025	1971	2003	2001
911	2047	2050	3	-2048.5	1022	1026.5	2081	2053	2027	1981	2007	2005
912	2051	2055	4	-2053	1023.5	1029.5	2085	2059	2037	1985	2015	2011
913	2051	2062	11	-2056.5	1020	1036.5	2091	2071	2045	1995	2017	2017
914	2059	2070	11	-2064.5	1024	1040.5	2097	2075	2057	2007	2031	2025
915	2065	2075	10	-2070	1027.5	1042.5	2099	2083	2066	2017	2041	2033
916	2067	2082	15	-2074.5	1026	1048.5	2103	2089	2077	2032	2051	2039
917	2069	2086	17	-2077.5	1026	1051.5	2107	2096	2086	2043	2063	2049
918	2073	2095	22	-2084	1025.5	1058.5	2111	2101	2093	2055	2071	2057
919	2081	2102	21	-2091.5	1030	1061.5	2119	2107	2104	2071	2083	2064
920	2083	2110	27	-2096.5	1028	1068.5	2125	2113	2111	2085	2091	2069
921	2089	2118	29	-2103.5	1030	1073.5	2131	2121	2125	2097	2099	2081
922	2096	2125	29	-2110.5	1033.5	1077	2137	2131	2134	2111	2113	2091
923	2101	2131	30	-2116	1035.5	1080.5	2145	2141	2145	2129	2125	2107
924	2101	2139	38	-2120	1031.5	1088.5	2149	2149	2163	2145	2137	2120
925	2111	2150	39	-2130.5	1036	1094.5	2155	2160	2176	2163	2151	2133
926	2117	2158	41	-2137.5	1038	1099.5	2163	2163	2187	2173	2163	2145
927	2123	2166	43	-2144.5	1040	1104.5	2167	2171	2199	2189	2179	2153
928	2129	2171	42	-2150	1043.5	1106.5	2176	2177	2210	2199	2191	2163
929	2131	2182	51	-2156.5	1040	1116.5	2192	2187	2223	2215	2201	2179
930	2139	2198	59	-2168.5	1040	1128.5	2203	2205	2239	2233	2221	2197
931	2149	2214	65	-2181.5	1042	1139.5	2217	2225	2265	2265	2245	2223
932	2171	2234	63	-2202.5	1054	1148.5	2233	2243	2293	2299	2273	2249
933	2181	2250	69	-2215.5	1056	1159.5	2251	2265	2325	2337	2303	2274
934	2195	2270	75	-2232.5	1060	1172.5	2267	2281	2352	2363	2325	2297
935	2203	2290	87	-2246.5	1058	1188.5	2281	2295	2376	2391	2347	2321
936	2117	2158	41	-2137.5	1038	1099.5	2183	2163	2157	2151	2149	2135
937	2123	2173	50	-2148	1036.5	1111.5	2197	2179	2175	2169	2167	2147
938	2131	2184	53	-2157.5	1039	1118.5	2213	2192	2189	2187	2183	2163
939	2133	2194	61	-2163.5	1036	1127.5	2224	2197	2199	2203	2195	2173
940	2145	2199	54	-2172	1045.5	1126.5	2224	2201	2203	2211	2201	2173
941	2141	2198	57	-2169.5	1042	1127.5	2219	2199	2207	2215	2201	2169
942	2145	2199	54	-2172	1045.5	1126.5	2217	2198	2205	2215	2201	2167
943	2144	2194	50	-2169	1047	1122	2211	2187	2201	2205	2195	2160
944	2137	2185	48	-2161	1044.5	1116.5	2203	2171	2187	2193	2181	2145
945	2129	2170	41	-2149.5	1044	1105.5	2187	2161	2171	2165	2165	2129
946	2119	2155	36	-2137	1041.5	1095.5	2169	2141	2153	2145	2145	2111
947	2111	2139	28	-2125	1041.5	1083.5	2147	2117	2129	2117	2123	2089
948	2096	2118	22	-2107	1037	1070	2121	2091	2101	2083	2093	2059
949	2081	2094	13	-2087.5	1034	1053.5	2096	2059	2067	2041	2057	2027
950	2064	2062	-2	-2063	1033	1030	2069	2033	2037	2003	2019	1995
951	2047	2043	-4	-2045	1025.5	1019.5	2053	2013	2013	1965	1987	1973
952	2039	2034	-5	-2036.5	1022	1014.5	2043	2005	2003	1945	1975	1970
953	2033	2030	-3	-2031.5	1018	1013.5	2041	2007	2005	1943	1971	1965
954	2035	2030	-5	-2032.5	1020	1012.5	2043	2009	2005	1943	1975	1969
955	2032	2030	-2	-2031	1017	1014	2047	2011	2005	1947	1971	1971
956	2035	2030	-5	-2032.5	1020	1012.5	2049	2011	2007	1949	1973	1977
957	2033	2030	-3	-2031.5	1018	1013.5	2047	2017	2009	1953	1971	1973
958	2037	2031	-6	-2034	1021.5	1012.5	2047	2011	2007	1953	1975	1977
959	2039	2035	-4	-2037	1021.5	1015.5	2045	2011	2007	1952	1975	1976
960	2037	2039	2	-2038	1017.5	1020.5	2045	2009	2007	1953	1975	1977
961	2035	2038	3	-2036.5	1016	1020.5	2049	2009	2011	1953	1975	1977
962	2035	2038	3	-2036.5	1016	1020.5	2051	2007	2013	1953	1973	1975
963	2033	2034	1	-2033.5	1016	1017.5	2047	2009	2013	1953	1975	1972
964	2035	2038	3	-2036.5	1016	1020.5	2047	2007	2016	1955	1975	1971
965	2043	2038	-5	-2040.5	1024	1016.5	2047	2011	2019	1953	1979	1974
966	2041	2038	-3	-2039.5	1022	1017.5	2047	2011	2019	1953	1977	1979
967	2041	2038	-3	-2039.5	1022	1017.5	2049	2009	2016	1952	1979	1977
968	2041	2035	-6	-2038	1023.5	1014.5	2047	2009	2016	1953	1975	1975
969	2041	2039	-2	-2040	1021.5	1018.5	2047	2009	2013	1955	1979	1971
970	2041	2036	-5	-2038.5	1023	1015.5	2051	2013	2013	1955	1979	1973
971	2039	2035	-4	-2037	1021.5	1015.5	2051	2017	2011	1959	1977	1975
972	2041	2036	-5	-2038.5	1023	1015.5	2049	2007	2009	1955	1977	1969
973	2033	2006	-27	-2019.5	1030	989.5	2025	1969	1979	1936	1943	1923
974	2013	1934	-79	-1973.5	1046	927.5	1989	1911	1912	1865	1857	1837
975	1975	1842	-133	-1908.5	1054	854.5	1952	1855	1832	1763	1737	1737
976	1953	1809	-144	-1881	1048.5	832.5	1979	1905	1841	1699	1679	1755
977	2003	1911	-92	-1957	1047.5	909.5	2090	2067	2032	1845	1841	1969
978	2119	2105	-14	-2112	1066.5	1045.5	2249	2289	2339	2169	2163	2301
979	2269	2342	73	-2305.5	1098	1207.5	2433	2531	2696	2577	2563	2681
980	2429	2592	163	-2510.5	1133	1377.5	2619	2783	3067	3009	2981	3057
981	2595	2847	252	-2721	1171.5	1549.5	2805	3029	3437	3427	3395	3425
982	2753	3098	345	-2925.5	1204	1721.5	2977	3249	3795	3839	3795	3771
983	2889	3258	369	-3073.5	1260	1813.5	3003	3239	3961	4083	4081	3920
984	2896	3194	298	-3045	1299	1746	2832	2951	3747	4085	4017	3731
985	2789	2983	194	-2886	1297.5	1588.5	2544	2515	3277	3761	3673	3337
986	2621	2707	86	-2664	1267.5	1396.5	2219	2043	2715	3243	3217	2889
987	2443	2422	-21	-2432.5	1232	1200.5	1901	1593	2154	2683	2741	2464
988	2273	2146	-127	-2209.5	1200	1009.5	1587	1149	1635	2165	2303	2085
989	2037	2006	-31	-2021.5	1034	987.5	2035	1991	1963	1911	1955	1959
990	2037	2007	-30	-2022	1033.5	988.5	2033	1989	1966	1913	1961	1960
991	2037	2005	-32	-2021	1034.5	986.5	2033	1987	1968	1911	1959	1961
992	2033	2008	-25	-2020.5	1029	991.5	2035	1989	1968	1915	1957	1959
993	2035	2007	-28	-2021	1031.5	989.5	2037	1989	1968	1913	1957	1960
994	2035	2010	-25	-2022.5	1030	992.5	2041	1989	1971	1913	1959	1961
995	2037	2010	-27	-2023.5	1032	991.5	2039	1987	1971	1919	1963	1961
996	2037	2013	-24	-2025	1030.5	994.5	2037	1991	1973	1921	1961	1965
997	2041	2015	-26	-2028	1033.5	994.5	2037	1991	1974	1921	1961	1963
998	2033	2016	-17	-2024.5	1025	999.5	2037	1991	1977	1921	1961	1965
999	2033	2016	-17	-2024.5	1025	999.5	2041	1991	1977	1923	1961	1969
1000	2039	2014	-25	-2026.5	1032	994.5	2039	1995	1977	1921	1963	1968
1001	2037	2012	-25	-2024.5	1031	993.5	2040	1995	1976	1925	1963	1969
1002	2039	2014	-25	-2026.5	1032	994.5	2039	1993	1976	1923	1961	1969
1003	2035	2014	-21	-2024.5	1028	996.5	2035	1993	1976	1925	1957	1967
1004	2041	2015	-26	-2028	1033.5	994.5	2033	1995	1975	1923	1957	1963
1005	2037	2012	-25	-2024.5	1031	993.5	2032	1995	1977	1925	1961	1963
1006	2041	2015	-26	-2028	1033.5	994.5	2037	2001	1974	1923	1963	1965
1007	2037	2015	-22	-2026	1029.5	996.5	2039	2001	1975	1925	1961	1968
1008	2037	2018	-19	-2027.5	1028	999.5	2039	2001	1975	1923	1959	1971
1009	2033	2014	-19	-2023.5	1026	997.5	2037	1993	1977	1925	1959	1972
1010	2033	2012	-21	-2022.5	1027	995.5	2037	1991	1974	1931	1959	1969
1011	2035	2014	-21	-2024.5	1028	996.5	2041	1991	1975	1927	1961	1971
1012	2035	2018	-17	-2026.5	1026	1000.5	2041	1995	1974	1927	1965	1970
1013	2043	2018	-25	-2030.5	1034	996.5	2039	2000	1979	1925	1965	1967
1014	2042	2018	-24	-2030	1033	997	2037	1995	1979	1921	1963	1966
1015	2045	2018	-27	-2031.5	1036	995.5	2039	1995	1980	1921	1967	1968
1016	2043	2018	-25	-2030.5	1034	996.5	2039	1993	1977	1927	1963	1969
1017	2043	2019	-24	-2031	1033.5	997.5	2041	2000	1976	1929	1963	1973
1018	2041	2019	-22	-2030	1031.5	998.5	2043	1995	1977	1931	1965	1971
1019	2039	2019	-20	-2029	1029.5	999.5	2041	1989	1979	1929	1963	1973
1020	2041	2023	-18	-2032	1029.5	1002.5	2041	1991	1982	1932	1967	1975
1021	2041	2022	-19	-2031.5	1030	1001.5	2040	1993	1980	1931	1969	1979
1022	2045	2026	-19	-2035.5	1032	1003.5	2037	1993	1979	1931	1969	1977
1023	2047	2026	-21	-2036.5	1034	1002.5	2033	1997	1978	1933	1969	1977
1024	2047	2027	-20	-2037	1033.5	1003.5	2033	2001	1979	1937	1969	1976
1025	2045	2026	-19	-2035.5	1032	1003.5	2033	2000	1978	1931	1969	1977
1026	2047	2026	-21	-2036.5	1034	1002.5	2033	2001	1979	1931	1969	1975
1027	2043	2027	-16	-2035	1029.5	1005.5	2037	2000	1979	1929	1975	1971
1028	2039	2028	-11	-2033.5	1025	1008.5	2039	2001	1981	1929	1973	1968
1029	2041	2026	-15	-2033.5	1028	1005.5	2039	2001	1983	1931	1977	1969
1030	2041	2028	-13	-2034.5	1027	1007.5	2041	2001	1983	1933	1973	1971
1031	2047	2027	-20	-2037	1033.5	1003.5	2041	2001	1983	1937	1971	1973
1032	2045	2030	-15	-2037.5	1030	1007.5	2041	2003	1983	1937	1971	1977
1033	2051	2030	-21	-2040.5	1036	1004.5	2041	2003	1983	1939	1975	1975
1034	2045	2030	-15	-2037.5	1030	1007.5	2041	2003	1983	1937	1973	1975
1035	2045	2026	-19	-2035.5	1032	1003.5	2037	2003	1983	1941	1977	1977
1036	2045	2023	-22	-2034	1033.5	1000.5	2035	2001	1983	1937	1979	1979
1037	2043	2027	-16	-2035	1029.5	1005.5	2041	2001	1982	1941	1981	1979
1038	2045	2030	-15	-2037.5	1030	1007.5	2041	2001	1983	1939	1983	1981
1039	2045	2035	-10	-2040	1027.5	1012.5	2047	2011	1989	1941	1985	1987
1040	2057	2047	-10	-2052	1033.5	1018.5	2064	2035	2009	1959	2001	2008
1041	2067	2070	3	-2068.5	1032	1036.5	2085	2065	2041	1991	2033	2037
1042	2017	1998	-19	-2007.5	1018	989.5	2033	1981	1952	1897	1915	1933
1043	2017	1998	-19	-2007.5	1018	989.5	2035	1979	1953	1901	1921	1936
1044	2017	1998	-19	-2007.5	1018	989.5	2035	1979	1953	1901	1921	1936
1045	2019	1994	-25	-2006.5	1022	984.5	2041	1979	1953	1897	1925	1933
1046	2019	1994	-25	-2006.5	1022	984.5	2039	1979	1957	1899	1929	1933
1047	2023	1995	-28	-2009	1025.5	983.5	2037	1979	1960	1899	1933	1933
1048	2017	1994	-23	-2005.5	1020	985.5	2037	1983	1964	1897	1931	1936
1049	2021	1995	-26	-2008	1023.5	984.5	2039	1979	1965	1897	1931	1933
1050	2017	1994	-23	-2005.5	1020	985.5	2039	1977	1964	1899	1933	1935
1051	2021	2000	-21	-2010.5	1021	989.5	2039	1977	1961	1904	1937	1937
1052	2019	2002	-17	-2010.5	1018	992.5	2039	1979	1963	1899	1937	1939
1053	2019	2002	-17	-2010.5	1018	992.5	2041	1981	1965	1899	1931	1939
1054	2021	2003	-18	-2012	1019.5	992.5	2041	1981	1968	1899	1935	1941
1055	2021	2006	-15	-2013.5	1018	995.5	2041	1981	1971	1899	1937	1937
1056	2025	2005	-20	-2015	1022.5	992.5	2041	1981	1969	1899	1937	1939
1057	2017	2003	-14	-2010	1015.5	994.5	2039	1981	1968	1904	1939	1939
1058	2017	2007	-10	-2012	1013.5	998.5	2038	1983	1967	1904	1941	1939
1059	2013	2006	-7	-2009.5	1010	999.5	2039	1985	1967	1905	1941	1944
1060	2017	2007	-10	-2012	1013.5	998.5	2041	1985	1963	1905	1943	1945
1061	2013	2007	-6	-2010	1009.5	1000.5	2041	1985	1965	1905	1943	1945
1062	2015	2011	-4	-2013	1009.5	1003.5	2045	1985	1966	1905	1945	1949
1063	2017	2010	-7	-2013.5	1012	1001.5	2043	1987	1967	1905	1947	1947
1064	2019	2006	-13	-2012.5	1016	996.5	2043	1985	1969	1907	1947	1949
1065	2019	2010	-9	-2014.5	1014	1000.5	2043	1987	1967	1907	1949	1952
1066	2019	2010	-9	-2014.5	1014	1000.5	2043	1985	1963	1909	1949	1952
1067	2025	2010	-15	-2017.5	1020	997.5	2041	1985	1965	1907	1945	1952
1068	2019	2010	-9	-2014.5	1014	1000.5	2043	1987	1965	1911	1947	1949
1069	2021	2007	-14	-2014	1017.5	996.5	2041	1989	1965	1909	1945	1947
1070	2023	2010	-13	-2016.5	1018	998.5	2043	1993	1965	1907	1945	1947
1071	2025	2011	-14	-2018	1019.5	998.5	2041	1993	1962	1909	1945	1947
1072	2023	2010	-13	-2016.5	1018	998.5	2041	1991	1963	1905	1939	1949
1073	2021	2015	-6	-2018	1013.5	1004.5	2041	1989	1964	1909	1943	1952
1074	2025	2014	-11	-2019.5	1018	1001.5	2041	1991	1967	1911	1943	1953
1075	2023	2014	-9	-2018.5	1016	1002.5	2041	1991	1965	1913	1945	1955
1076	2023	2011	-12	-2017	1017.5	999.5	2041	1993	1969	1911	1945	1955
1077	2019	2009	-10	-2014	1014.5	999.5	2041	1991	1968	1911	1947	1955
1078	2025	2007	-18	-2016	1021.5	994.5	2041	1989	1969	1909	1947	1953
1079	2023	2007	-16	-2015	1019.5	995.5	2041	1991	1968	1913	1953	1955
1080	2021	2010	-11	-2015.5	1016	999.5	2041	1991	1967	1915	1953	1955
1081	2023	2014	-9	-2018.5	1016	1002.5	2041	1993	1965	1915	1955	1955
1082	2023	2016	-7	-2019.5	1015	1004.5	2041	1991	1967	1915	1955	1956
1083	2027	2017	-10	-2022	1018.5	1003.5	2041	1991	1969	1915	1953	1961
1084	2025	2019	-6	-2022	1015.5	1006.5	2041	1993	1969	1915	1953	1961
1085	2027	2020	-7	-2023.5	1017	1006.5	2041	1991	1971	1921	1953	1961
1086	2025	2018	-7	-2021.5	1016	1005.5	2041	1991	1971	1921	1953	1963
1087	2027	2015	-12	-2021	1019.5	1001.5	2041	1993	1974	1919	1953	1961
1088	2025	2014	-11	-2019.5	1018	1001.5	2043	1995	1976	1921	1955	1961
1089	2025	2019	-6	-2022	1015.5	1006.5	2041	1995	1976	1925	1955	1961
1090	2023	2022	-1	-2022.5	1012	1010.5	2041	1995	1972	1923	1959	1961
1091	2023	2022	-1	-2022.5	1012	1010.5	2037	1995	1971	1923	1955	1959
1092	2025	2020	-5	-2022.5	1015	1007.5	2039	1991	1969	1921	1957	1960
1093	2025	2020	-5	-2022.5	1015	1007.5	2043	1993	1973	1921	1955	1961
1094	2027	2020	-7	-2023.5	1017	1006.5	2043	1993	1977	1921	1957	1963
1095	2065	2086	21	-2075.5	1022	1053.5	2099	2073	2069	2041	2035	2043
1096	2069	2091	22	-2080	1023.5	1056.5	2105	2081	2080	2053	2043	2051
1097	2073	2093	20	-2083	1026.5	1056.5	2111	2087	2089	2065	2053	2061
1098	2077	2099	22	-2088	1027.5	1060.5	2117	2091	2101	2077	2061	2065
1099	2085	2106	21	-2095.5	1032	1063.5	2119	2099	2109	2085	2071	2076
1100	2093	2111	18	-2102	1037.5	1064.5	2123	2107	2117	2097	2081	2088
1101	2101	2122	21	-2111.5	1040	1071.5	2134	2117	2131	2109	2095	2103
1102	2103	2130	27	-2116.5	1038	1078.5	2145	2129	2144	2128	2107	2115
1103	2107	2140	33	-2123.5	1037	1086.5	2153	2139	2159	2141	2123	2128
1104	2111	2149	38	-2130	1036.5	1093.5	2161	2149	2173	2161	2135	2137
1105	2117	2159	42	-2138	1037.5	1100.5	2171	2155	2185	2177	2149	2147
1106	2125	2164	39	-2144.5	1043	1101.5	2177	2161	2197	2187	2161	2157
1107	2128	2174	46	-2151	1041	1110	2179	2167	2208	2195	2171	2169
1108	2135	2179	44	-2157	1045.5	1111.5	2185	2185	2221	2211	2185	2183
1109	2143	2198	55	-2170.5	1044	1126.5	2199	2205	2245	2235	2203	2205
1110	2157	2216	59	-2186.5	1049	1137.5	2217	2225	2269	2269	2227	2228
1111	2167	2234	67	-2200.5	1050	1150.5	2231	2243	2299	2305	2257	2257
1112	2185	2250	65	-2217.5	1060	1157.5	2245	2259	2323	2341	2289	2285
1113	2195	2263	68	-2229	1063.5	1165.5	2263	2275	2346	2371	2313	2307
1114	2205	2278	73	-2241.5	1066	1175.5	2279	2291	2367	2401	2337	2323
1115	2217	2291	74	-2254	1071.5	1182.5	2293	2307	2393	2425	2359	2341
1116	2219	2306	87	-2262.5	1066	1196.5	2303	2313	2412	2453	2379	2349
1117	2225	2306	81	-2265.5	1072	1193.5	2305	2309	2411	2459	2385	2347
1118	2219	2302	83	-2260.5	1068	1192.5	2299	2299	2397	2449	2371	2340
1119	2217	2294	77	-2255.5	1070	1185.5	2289	2289	2379	2425	2353	2321
1120	2205	2282	77	-2243.5	1064	1179.5	2277	2275	2361	2401	2335	2307
1121	2205	2274	69	-2239.5	1068	1171.5	2272	2263	2348	2385	2323	2297
1122	2195	2262	67	-2228.5	1064	1164.5	2265	2257	2333	2369	2311	2285
1123	2193	2258	65	-2225.5	1064	1161.5	2259	2251	2325	2363	2299	2281
1124	2192	2250	58	-2221	1067	1154	2247	2237	2314	2349	2289	2265
1125	2173	2230	57	-2201.5	1058	1143.5	2219	2208	2275	2321	2263	2225
1126	2149	2191	42	-2170	1053.5	1116.5	2185	2163	2223	2257	2211	2169
1127	2123	2150	27	-2136.5	1048	1088.5	2145	2119	2159	2179	2143	2105
1128	2096	2106	10	-2101	1043	1058	2107	2073	2091	2097	2075	2045
1129	2065	2070	5	-2067.5	1030	1037.5	2083	2041	2041	2027	2021	2001
1130	2047	2047	0	-2047	1023.5	1023.5	2067	2018	2008	1977	1981	1971
1131	2033	2026	-7	-2029.5	1020	1009.5	2051	2001	1979	1939	1953	1949
1132	2019	2010	-9	-2014.5	1014	1000.5	2035	1983	1954	1909	1927	1929
1133	2009	1998	-11	-2003.5	1010	993.5	2025	1977	1937	1885	1913	1921
1134	2005	1994	-11	-1999.5	1008	991.5	2023	1975	1933	1879	1905	1917
1135	2007	1991	-16	-1999	1011.5	987.5	2023	1977	1932	1877	1909	1919
1136	2005	1992	-13	-1998.5	1009	989.5	2025	1973	1933	1879	1911	1921
1137	2011	1994	-17	-2002.5	1014	988.5	2025	1971	1933	1877	1911	1927
1138	2009	1991	-18	-2000	1013.5	986.5	2025	1971	1939	1877	1911	1929
1139	2009	1994	-15	-2001.5	1012	989.5	2027	1971	1941	1881	1909	1928
1140	2005	1992	-13	-1998.5	1009	989.5	2029	1973	1942	1888	1907	1929
1141	2005	1994	-11	-1999.5	1008	991.5	2029	1975	1941	1889	1905	1931
1142	2009	1991	-18	-2000	1013.5	986.5	2025	1976	1939	1891	1907	1927
1143	2005	1994	-11	-1999.5	1008	991.5	2027	1973	1933	1891	1907	1927
1144	2009	1995	-14	-2002	1011.5	990.5	2027	1973	1936	1889	1909	1925
1145	2009	1998	-11	-2003.5	1010	993.5	2025	1975	1939	1891	1909	1927
1146	2013	1994	-19	-2003.5	1016	987.5	2027	1975	1944	1889	1913	1925
1147	2011	1993	-18	-2002	1014.5	987.5	2027	1977	1944	1889	1915	1923
1148	2013	1995	-18	-2004	1015.5	988.5	2029	1977	1944	1891	1917	1927
1149	2033	2029	-4	-2031	1018.5	1012.5	2055	2011	1999	1977	1981	1979
1150	2039	2031	-8	-2035	1023.5	1011.5	2053	2013	1999	1977	1985	1981
1151	2033	2031	-2	-2032	1017.5	1014.5	2047	2003	1997	1977	1981	1976
1152	2032	1999	-33	-2015.5	1032.5	983	2025	1965	1969	1953	1951	1931
1153	2005	1927	-78	-1966	1041.5	924.5	1987	1907	1908	1885	1865	1845
1154	1975	1838	-137	-1906.5	1056	850.5	1949	1849	1827	1787	1751	1739
1155	1945	1795	-150	-1870	1047.5	822.5	1977	1897	1835	1723	1685	1751
1156	1993	1898	-95	-1945.5	1044	901.5	2085	2057	2024	1873	1845	1965
1157	2113	2094	-19	-2103.5	1066	1037.5	2251	2281	2331	2192	2163	2305
1158	2265	2333	68	-2299	1098.5	1200.5	2433	2529	2689	2597	2561	2681
1159	2425	2586	161	-2505.5	1132	1373.5	2619	2779	3065	3025	2981	3065
1160	2593	2843	250	-2718	1171.5	1546.5	2803	3025	3429	3449	3395	3431
1161	2751	3091	340	-2921	1205.5	1715.5	2977	3249	3787	3857	3797	3773
1162	2883	3254	371	-3068.5	1256	1812.5	3003	3233	3957	4085	4081	3921
1163	2899	3198	299	-3048.5	1300	1748.5	2833	2949	3752	4083	4019	3733
1164	2785	2981	196	-2883	1294.5	1588.5	2545	2513	3283	3793	3683	3344
1165	2619	2702	83	-2660.5	1268	1392.5	2219	2043	2720	3281	3219	2895
1166	2448	2418	-30	-2433	1239	1194	1897	1591	2157	2721	2747	2471
1167	2269	2143	-126	-2206	1197.5	1008.5	1589	1147	1641	2197	2303	2091
1168	2105	1883	-222	-1994	1163.5	830.5	1307	771	1155	1717	1891	1757
1169	1969	1730	-239	-1849.5	1104	745.5	1248	745	926	1379	1619	1597
1170	1917	1718	-199	-1817.5	1058	759.5	1401	1041	1042	1323	1571	1617
1171	1931	1803	-128	-1867	1029.5	837.5	1675	1505	1388	1479	1667	1745
1172	1975	1912	-63	-1943.5	1019	924.5	1911	1867	1755	1717	1817	1878
1173	2009	1982	-27	-1995.5	1018	977.5	2027	2021	1951	1885	1907	1943
1174	2025	2007	-18	-2016	1021.5	994.5	2061	2045	2007	1947	1937	1955
1175	2025	2011	-14	-2018	1019.5	998.5	2064	2033	2002	1955	1931	1952
1176	2027	2011	-16	-2019	1021.5	997.5	2055	2019	1991	1943	1927	1943
1177	2023	2007	-16	-2015	1019.5	995.5	2051	2013	1979	1929	1929	1937
1178	2025	2006	-19	-2015.5	1022	993.5	2045	2009	1976	1925	1931	1937
1179	2026	1999	-27	-2012.5	1026.5	986	2045	2009	1976	1921	1931	1939
1180	2025	1999	-26	-2012	1025.5	986.5	2047	2009	1975	1921	1931	1939
1181	2025	2002	-23	-2013.5	1024	989.5	2051	2011	1976	1921	1933	1943
1182	2021	2007	-14	-2014	1017.5	996.5	2049	2013	1977	1921	1929	1945
1183	2021	2010	-11	-2015.5	1016	999.5	2049	2016	1983	1923	1937	1944
1184	2019	2009	-10	-2014	1014.5	999.5	2051	2017	1983	1927	1937	1945
1185	2021	2006	-15	-2013.5	1018	995.5	2053	2019	1986	1931	1937	1948
1186	2017	2006	-11	-2011.5	1014	997.5	2055	2019	1983	1937	1939	1949
1187	2017	2010	-7	-2013.5	1012	1001.5	2055	2021	1983	1939	1941	1949
1188	2019	2011	-8	-2015	1013.5	1001.5	2055	2019	1983	1939	1943	1955
1189	2019	2014	-5	-2016.5	1012	1004.5	2059	2019	1987	1941	1947	1957
1190	2027	2012	-15	-2019.5	1021	998.5	2061	2021	1992	1945	1951	1961
1191	2032	2016	-16	-2024	1024	1000	2065	2027	1996	1953	1953	1965
1192	2035	2016	-19	-2025.5	1027	998.5	2067	2029	2002	1957	1961	1969
1193	2033	2022	-11	-2027.5	1022	1005.5	2073	2029	2007	1961	1963	1973
1194	2039	2030	-9	-2034.5	1024	1010.5	2075	2035	2011	1969	1971	1977
1195	2035	2034	-1	-2034.5	1018	1016.5	2075	2039	2018	1983	1979	1983
1196	2039	2035	-4	-2037	1021.5	1015.5	2085	2043	2021	1987	1985	1992
1197	2041	2042	1	-2041.5	1020	1021.5	2096	2045	2028	1995	1989	1997
1198	2047	2048	1	-2047.5	1023	1024.5	2093	2049	2037	2007	1993	2001
1199	2047	2050	3	-2048.5	1022	1026.5	2097	2053	2043	2015	2001	2005
1200	2051	2055	4	-2053	1023.5	1029.5	2101	2061	2052	2027	2007	2011
1201	2033	2034	1	-2033.5	1016	1017.5	2047	2007	1994	1949	1975	1968
1202	2033	2035	2	-2034	1015.5	1018.5	2047	2007	1993	1947	1973	1969
1203	2035	2034	-1	-2034.5	1018	1016.5	2049	2005	1992	1947	1975	1969
1204	2033	2034	1	-2033.5	1016	1017.5	2053	2003	1993	1953	1975	1972
1205	2033	2031	-2	-2032	1017.5	1014.5	2049	2005	1989	1953	1985	1971
1206	2032	2034	2	-2033	1015	1018	2049	2007	1989	1954	1981	1969
1207	2039	2037	-2	-2038	1020.5	1017.5	2047	2005	1992	1947	1981	1971
1208	2033	2036	3	-2034.5	1015	1019.5	2047	2007	1995	1953	1977	1971
1209	2039	2031	-8	-2035	1023.5	1011.5	2047	2007	1998	1953	1979	1969
1210	2039	2030	-9	-2034.5	1024	1010.5	2047	2007	1996	1949	1979	1969
1211	2035	2030	-5	-2032.5	1020	1012.5	2049	2009	1999	1949	1979	1969
1212	2041	2031	-10	-2036	1025.5	1010.5	2049	2011	1997	1945	1979	1971
1213	2041	2033	-8	-2037	1024.5	1012.5	2045	2009	1997	1945	1977	1971
1214	2041	2030	-11	-2035.5	1026	1009.5	2045	2007	1997	1945	1985	1969
1215	2039	2034	-5	-2036.5	1022	1014.5	2045	2009	1997	1949	1987	1971
1216	2041	2036	-5	-2038.5	1023	1015.5	2045	2009	1997	1949	1985	1971
1217	2041	2035	-6	-2038	1023.5	1014.5	2049	2007	1999	1953	1987	1969
1218	2045	2038	-7	-2041.5	1026	1015.5	2057	2017	2003	1955	1991	1976
1219	2053	2050	-3	-2051.5	1028	1023.5	2075	2035	2024	1971	2007	1997
1220	2067	2072	5	-2069.5	1031	1038.5	2103	2065	2049	2009	2037	2027
1221	2083	2099	16	-2091	1033.5	1057.5	2129	2099	2083	2051	2071	2059
1222	2099	2123	24	-2111	1037.5	1073.5	2153	2125	2113	2097	2107	2091
1223	2117	2144	27	-2130.5	1045	1085.5	2173	2145	2137	2131	2135	2115
1224	2128	2155	27	-2141.5	1050.5	1091	2187	2161	2153	2161	2157	2133
1225	2139	2168	29	-2153.5	1055	1098.5	2201	2179	2171	2183	2177	2151
1226	2147	2179	32	-2163	1057.5	1105.5	2211	2187	2184	2199	2193	2167
1227	2153	2191	38	-2172	1057.5	1114.5	2217	2185	2188	2205	2205	2171
1228	2155	2194	39	-2174.5	1058	1116.5	2219	2187	2189	2211	2211	2169
1229	2153	2194	41	-2173.5	1056	1117.5	2219	2185	2187	2209	2207	2165
1230	2153	2187	34	-2170	1059.5	1110.5	2217	2181	2185	2203	2205	2165
1231	2149	2180	31	-2164.5	1059	1105.5	2208	2171	2176	2197	2195	2155
1232	2145	2171	26	-2158	1059.5	1098.5	2193	2157	2162	2177	2183	2143
1233	2133	2160	27	-2146.5	1053	1093.5	2177	2141	2152	2157	2161	2125
1234	2128	2146	18	-2137	1055	1082	2161	2123	2136	2137	2141	2105
1235	2115	2126	11	-2120.5	1052	1068.5	2141	2105	2111	2109	2115	2080
1236	2097	2099	2	-2098	1047.5	1050.5	2113	2073	2078	2073	2083	2047
1237	2081	2076	-5	-2078.5	1043	1035.5	2085	2043	2047	2033	2049	2016
1238	2064	2054	-10	-2059	1037	1022	2059	2019	2013	1989	2007	1987
1239	2051	2035	-16	-2043	1033.5	1009.5	2045	2005	1993	1961	1985	1971
1240	2043	2027	-16	-2035	1029.5	1005.5	2041	2000	1983	1953	1973	1965
1241	2045	2026	-19	-2035.5	1032	1003.5	2039	2000	1983	1953	1977	1969
1242	2041	2023	-18	-2032	1029.5	1002.5	2041	2001	1983	1959	1983	1971
1243	2047	2027	-20	-2037	1033.5	1003.5	2041	2003	1983	1955	1985	1973
1244	2043	2030	-13	-2036.5	1028	1008.5	2039	2005	1989	1955	1985	1973
1245	2043	2030	-13	-2036.5	1028	1008.5	2041	2005	1992	1955	1981	1977
1246	2043	2030	-13	-2036.5	1028	1008.5	2041	2005	1992	1953	1979	1977
1247	2041	2030	-11	-2035.5	1026	1009.5	2043	2003	1990	1955	1979	1977
1248	2043	2031	-12	-2037	1027.5	1009.5	2045	2003	1989	1955	1982	1976
1249	2041	2034	-7	-2037.5	1024	1013.5	2047	2001	1987	1957	1979	1975
1250	2041	2035	-6	-2038	1023.5	1014.5	2041	2001	1987	1955	1981	1975
1251	2041	2038	-3	-2039.5	1022	1017.5	2045	2003	1987	1957	1985	1975
1252	2022	2004	-18	-2013	1020	993	2033	1991	1941	1905	1933	1943
1253	2025	2005	-20	-2015	1022.5	992.5	2033	1989	1943	1905	1937	1941
1254	2025	2006	-19	-2015.5	1022	993.5	2033	1991	1944	1904	1935	1939
1255	2025	2002	-23	-2013.5	1024	989.5	2033	1987	1947	1905	1937	1939
1256	2025	2004	-21	-2014.5	1023	991.5	2033	1987	1945	1907	1933	1941
1257	2027	2003	-24	-2015	1025.5	989.5	2033	1987	1946	1907	1931	1942
1258	2023	2004	-19	-2013.5	1021	992.5	2035	1989	1947	1909	1933	1943
1259	2025	2007	-18	-2016	1021.5	994.5	2033	1993	1945	1911	1935	1945
1260	2019	2012	-7	-2015.5	1013	1002.5	2032	1993	1947	1911	1937	1945
1261	2021	2007	-14	-2014	1017.5	996.5	2033	1991	1947	1911	1937	1945
1262	2023	2007	-16	-2015	1019.5	995.5	2033	1987	1947	1909	1937	1949
1263	2019	2010	-9	-2014.5	1014	1000.5	2035	1985	1949	1913	1931	1949
1264	2023	2011	-12	-2017	1017.5	999.5	2037	1989	1949	1913	1933	1949
1265	2025	2014	-11	-2019.5	1018	1001.5	2041	1989	1952	1917	1937	1953
1266	2025	2014	-11	-2019.5	1018	1001.5	2041	1991	1953	1915	1937	1953
1267	2021	2018	-3	-2019.5	1012	1007.5	2035	1989	1952	1913	1939	1953
1268	2025	2019	-6	-2022	1015.5	1006.5	2033	1993	1952	1913	1939	1953
1269	2023	2019	-4	-2021	1013.5	1007.5	2033	1993	1950	1911	1941	1952
1270	2021	2022	1	-2021.5	1010	1011.5	2035	1993	1953	1911	1941	1952
1271	2021	2021	0	-2021	1010.5	1010.5	2035	1993	1954	1911	1939	1953
1272	2019	2023	4	-2021	1007.5	1013.5	2035	1991	1955	1919	1943	1952
1273	2021	2021	0	-2021	1010.5	1010.5	2035	1987	1958	1921	1941	1955
1274	2023	2022	-1	-2022.5	1012	1010.5	2037	1989	1959	1923	1943	1959
1275	2023	2019	-4	-2021	1013.5	1007.5	2035	1991	1959	1921	1949	1959
1276	2021	2020	-1	-2020.5	1011	1009.5	2033	1987	1960	1921	1949	1961
1277	2025	2019	-6	-2022	1015.5	1006.5	2035	1993	1961	1921	1945	1957
1278	2021	2022	1	-2021.5	1010	1011.5	2035	1993	1961	1923	1951	1957
1279	2027	2022	-5	-2024.5	1016	1008.5	2033	1997	1961	1923	1951	1957
1280	2023	2019	-4	-2021	1013.5	1007.5	2033	1995	1961	1925	1953	1957
1281	2019	2018	-1	-2018.5	1010	1008.5	2033	1997	1961	1921	1951	1957
1282	2023	2019	-4	-2021	1013.5	1007.5	2034	2001	1961	1921	1953	1959
1283	2023	2020	-3	-2021.5	1013	1008.5	2037	2001	1959	1923	1949	1957
1284	2025	2020	-5	-2022.5	1015	1007.5	2039	2001	1957	1925	1951	1961
1285	2021	2019	-2	-2020	1011.5	1008.5	2039	1997	1955	1929	1953	1963
1286	2025	2019	-6	-2022	1015.5	1006.5	2037	1995	1955	1931	1959	1963
1287	2025	2018	-7	-2021.5	1016	1005.5	2033	1993	1955	1929	1960	1961
1288	2032	2019	-13	-2025.5	1022.5	1003	2033	1993	1957	1929	1959	1960
1289	2033	2018	-15	-2025.5	1024	1001.5	2035	1995	1959	1931	1959	1960
1290	2029	2018	-11	-2023.5	1020	1003.5	2033	1993	1961	1927	1955	1961
1291	2032	2018	-14	-2025	1023	1002	2037	1995	1963	1929	1957	1961
1292	2027	2019	-8	-2023	1017.5	1005.5	2035	1997	1961	1931	1959	1961
1293	2027	2022	-5	-2024.5	1016	1008.5	2035	1995	1962	1937	1963	1963
1294	2025	2021	-4	-2023	1014.5	1008.5	2033	1995	1962	1937	1963	1965
1295	2027	2022	-5	-2024.5	1016	1008.5	2033	1993	1961	1936	1963	1965
1296	2025	2019	-6	-2022	1015.5	1006.5	2033	1995	1963	1937	1963	1969
1297	2025	2022	-3	-2023.5	1014	1009.5	2035	1997	1967	1937	1959	1968
1298	2025	2025	0	-2025	1012.5	1012.5	2037	2000	1968	1931	1961	1969
1299	2027	2027	0	-2027	1013.5	1013.5	2039	2001	1967	1931	1961	1969
1300	2027	2023	-4	-2025	1015.5	1009.5	2037	2001	1969	1931	1963	1969
1301	2027	2026	-1	-2026.5	1014	1012.5	2037	2000	1967	1931	1963	1969
1302	2033	2022	-11	-2027.5	1022	1005.5	2035	2001	1968	1937	1965	1969
1303	2032	2023	-9	-2027.5	1020.5	1007	2033	2001	1971	1937	1961	1968
1304	2033	2025	-8	-2029	1020.5	1008.5	2035	2001	1972	1939	1957	1969
1305	2027	2024	-3	-2025.5	1015	1010.5	2037	2000	1974	1941	1959	1971
1306	2033	2024	-9	-2028.5	1021	1007.5	2037	2001	1973	1945	1963	1971
1307	2096	2106	10	-2101	1043	1058	2107	2081	2078	2109	2077	2045
1308	2067	2077	10	-2072	1028.5	1043.5	2081	2049	2027	2037	2023	2000
1309	2049	2049	0	-2049	1024.5	1024.5	2064	2025	1991	1987	1987	1968
1310	2033	2027	-6	-2030	1019.5	1010.5	2045	2003	1966	1953	1959	1945
1311	2023	2010	-13	-2016.5	1018	998.5	2032	1989	1944	1923	1933	1925
1312	2013	1998	-15	-2005.5	1014	991.5	2025	1985	1931	1904	1917	1917
1313	2011	1995	-16	-2003	1013.5	989.5	2023	1985	1927	1897	1911	1917
1314	2009	1994	-15	-2001.5	1012	989.5	2025	1981	1929	1893	1911	1919
1315	2009	1990	-19	-1999.5	1014	985.5	2021	1981	1929	1897	1913	1921
1316	2011	1991	-20	-2001	1015.5	985.5	2023	1981	1931	1901	1915	1923
1317	2009	1987	-22	-1998	1015.5	982.5	2021	1985	1933	1904	1915	1923
1318	2013	1987	-26	-2000	1019.5	980.5	2021	1985	1934	1904	1921	1925
1319	2011	1988	-23	-1999.5	1017	982.5	2023	1987	1935	1905	1923	1923
1320	2017	1983	-34	-2000	1025.5	974.5	2025	1989	1935	1905	1925	1925
1321	2013	1986	-27	-1999.5	1020	979.5	2023	1993	1933	1905	1923	1925
1322	2017	1990	-27	-2003.5	1022	981.5	2023	1991	1929	1909	1923	1929
1323	2017	1991	-26	-2004	1021.5	982.5	2023	1989	1929	1905	1921	1931
1324	2017	1998	-19	-2007.5	1018	989.5	2023	1987	1931	1905	1925	1931
1325	2017	1993	-24	-2005	1020.5	984.5	2025	1991	1929	1899	1925	1931
1326	2016	1995	-21	-2005.5	1018.5	987	2027	1991	1929	1907	1932	1929
1327	2016	1994	-22	-2005	1019	986	2032	1991	1927	1909	1927	1929
1328	2011	1996	-15	-2003.5	1013	990.5	2033	1989	1928	1913	1923	1931
1329	2017	1998	-19	-2007.5	1018	989.5	2033	1991	1933	1911	1921	1933
1330	2016	1999	-17	-2007.5	1016.5	991	2029	1987	1936	1915	1921	1929
1331	2019	1999	-20	-2009	1019.5	989.5	2032	1987	1933	1915	1921	1929
1332	2017	1999	-18	-2008	1017.5	990.5	2027	1991	1932	1913	1923	1931
1333	2017	1998	-19	-2007.5	1018	989.5	2023	1991	1933	1915	1923	1933
1334	2017	1999	-18	-2008	1017.5	990.5	2025	1989	1934	1911	1923	1936
1335	2009	2002	-7	-2005.5	1008	997.5	2023	1983	1935	1913	1925	1937
1336	2017	1999	-18	-2008	1017.5	990.5	2024	1985	1936	1911	1929	1933
1337	2016	1998	-18	-2007	1017	990	2027	1985	1937	1917	1929	1933
1338	2017	2003	-14	-2010	1015.5	994.5	2032	1985	1937	1917	1933	1936
1339	2011	2005	-6	-2008	1008.5	999.5	2027	1987	1943	1920	1931	1937
1340	2016	2007	-9	-2011.5	1012.5	999	2029	1989	1941	1917	1933	1937
1341	2011	2010	-1	-2010.5	1006	1004.5	2032	1993	1942	1923	1933	1940
1342	2011	2009	-2	-2010	1006.5	1003.5	2033	1995	1941	1925	1937	1939
1343	2013	2006	-7	-2009.5	1010	999.5	2033	1995	1946	1925	1937	1937
1344	2013	2006	-7	-2009.5	1010	999.5	2035	1991	1945	1923	1937	1941
1345	2011	2006	-5	-2008.5	1008	1000.5	2035	1989	1947	1921	1937	1941
1346	2009	2002	-7	-2005.5	1008	997.5	2033	1989	1947	1917	1939	1941
1347	2011	2002	-9	-2006.5	1010	996.5	2033	1989	1947	1917	1937	1945
1348	1963	1722	-241	-1842.5	1102	740.5	1259	749	931	1361	1603	1599
1349	1913	1715	-198	-1814	1055.5	758.5	1419	1059	1059	1317	1557	1625
1350	1929	1806	-123	-1867.5	1026	841.5	1693	1523	1415	1483	1661	1760
1351	1963	1914	-49	-1938.5	1006	932.5	1923	1877	1779	1723	1809	1888
1352	2001	1978	-23	-1989.5	1012	977.5	2033	2019	1968	1885	1901	1947
1353	2017	2002	-15	-2009.5	1016	993.5	2069	2049	2016	1945	1933	1957
1354	2021	2010	-11	-2015.5	1016	999.5	2071	2033	2010	1943	1937	1952
1355	2019	2013	-6	-2016	1012.5	1003.5	2067	2019	1993	1925	1927	1939
1356	2017	2010	-7	-2013.5	1012	1001.5	2059	2013	1983	1915	1921	1936
1357	2016	2011	-5	-2013.5	1010.5	1003	2059	2011	1983	1911	1920	1935
1358	2013	2011	-2	-2012	1007.5	1004.5	2059	2013	1987	1915	1917	1937
1359	2013	2014	1	-2013.5	1006	1007.5	2061	2017	1983	1915	1921	1937
1360	2007	2013	6	-2010	1000.5	1009.5	2059	2017	1987	1921	1921	1941
1361	2011	2013	2	-2012	1004.5	1007.5	2061	2011	1987	1920	1921	1941
1362	2011	2011	0	-2011	1005.5	1005.5	2061	2009	1987	1917	1923	1941
1363	2016	2011	-5	-2013.5	1010.5	1003	2064	2007	1991	1921	1923	1941
1364	2013	2014	1	-2013.5	1006	1007.5	2059	2007	1992	1921	1925	1945
1365	2011	2018	7	-2014.5	1002	1012.5	2059	2009	1994	1927	1927	1947
1366	2013	2017	4	-2015	1004.5	1010.5	2065	2017	1999	1929	1931	1949
1367	2017	2019	2	-2018	1007.5	1010.5	2067	2023	1999	1939	1935	1953
1368	2023	2019	-4	-2021	1013.5	1007.5	2069	2021	1999	1939	1937	1957
1369	2023	2018	-5	-2020.5	1014	1006.5	2071	2021	2001	1941	1939	1961
1370	2027	2019	-8	-2023	1017.5	1005.5	2069	2023	2001	1941	1943	1965
1371	2027	2020	-7	-2023.5	1017	1006.5	2073	2033	2007	1949	1949	1969
1372	2032	2024	-8	-2028	1020	1008	2077	2033	2011	1953	1953	1971
1373	2033	2027	-6	-2030	1019.5	1010.5	2081	2035	2017	1963	1963	1979
1374	2035	2031	-4	-2033	1019.5	1013.5	2085	2037	2021	1971	1971	1989
1375	2041	2037	-4	-2039	1022.5	1016.5	2089	2041	2025	1979	1979	1995
1376	2037	2043	6	-2040	1015.5	1024.5	2093	2043	2031	1989	1979	2001
1377	2041	2050	9	-2045.5	1016	1029.5	2097	2047	2039	1995	1985	2003
1378	2041	2056	15	-2048.5	1013	1035.5	2099	2055	2046	2001	1989	2007
1379	2048	2063	15	-2055.5	1016.5	1039	2101	2059	2055	2007	1999	2011
1380	2053	2066	13	-2059.5	1020	1039.5	2105	2071	2064	2017	2007	2020
1381	2059	2071	12	-2065	1023.5	1041.5	2109	2081	2072	2025	2015	2031
1382	2067	2078	11	-2072.5	1028	1044.5	2115	2087	2085	2037	2027	2043
1383	2073	2086	13	-2079.5	1030	1049.5	2123	2089	2095	2049	2033	2053
1384	2080	2092	12	-2086	1034	1052	2129	2093	2107	2064	2047	2065
1385	2083	2098	15	-2090.5	1034	1056.5	2133	2103	2115	2073	2055	2069
1386	2089	2106	17	-2097.5	1036	1061.5	2137	2109	2122	2087	2067	2075
1387	2087	2111	24	-2099	1031.5	1067.5	2141	2117	2131	2093	2077	2081
1388	2093	2118	25	-2105.5	1034	1071.5	2145	2123	2143	2107	2089	2091
1389	2097	2128	31	-2112.5	1033	1079.5	2153	2135	2155	2119	2099	2101
1390	2101	2138	37	-2119.5	1032	1087.5	2161	2145	2169	2145	2113	2115
1391	2105	2150	45	-2127.5	1030	1097.5	2169	2153	2183	2155	2129	2131
1392	2111	2158	47	-2134.5	1032	1102.5	2177	2161	2201	2173	2141	2144
1393	2117	2166	49	-2141.5	1034	1107.5	2181	2169	2211	2189	2155	2151
1394	2121	2172	51	-2146.5	1035	1111.5	2187	2177	2224	2208	2163	2159
1395	2129	2182	53	-2155.5	1038	1117.5	2195	2189	2233	2217	2177	2169
1396	2133	2193	60	-2163	1036.5	1126.5	2208	2201	2253	2231	2193	2185
1397	2147	2205	58	-2176	1044.5	1131.5	2224	2217	2273	2259	2215	2209
1398	2155	2219	64	-2187	1045.5	1141.5	2241	2237	2301	2291	2241	2237
1399	2169	2242	73	-2205.5	1048	1157.5	2259	2259	2331	2331	2273	2267
1400	2187	2255	68	-2221	1059.5	1161.5	2273	2277	2361	2359	2295	2291
1401	2199	2276	77	-2237.5	1061	1176.5	2288	2297	2384	2391	2321	2313
1402	2209	2290	81	-2249.5	1064	1185.5	2297	2313	2409	2417	2347	2331
1403	2216	2303	87	-2259.5	1064.5	1195	2313	2321	2428	2449	2365	2352
1404	2219	2311	92	-2265	1063.5	1201.5	2315	2323	2433	2467	2377	2355
1405	2139	2187	48	-2163	1045.5	1117.5	2201	2185	2173	2209	2193	2171
1406	2147	2194	47	-2170.5	1050	1120.5	2206	2185	2180	2217	2203	2181
1407	2147	2198	51	-2172.5	1048	1124.5	2209	2179	2179	2217	2201	2181
1408	2147	2194	47	-2170.5	1050	1120.5	2209	2181	2179	2211	2203	2177
1409	2145	2194	49	-2169.5	1048	1121.5	2208	2177	2174	2209	2205	2177
1410	2145	2187	42	-2166	1051.5	1114.5	2197	2165	2165	2203	2199	2169
1411	2133	2178	45	-2155.5	1044	1111.5	2181	2149	2152	2192	2183	2153
1412	2125	2162	37	-2143.5	1044	1099.5	2169	2133	2137	2165	2165	2133
1413	2115	2144	29	-2129.5	1043	1086.5	2149	2115	2119	2145	2145	2111
1414	2105	2126	21	-2115.5	1042	1073.5	2125	2091	2091	2113	2119	2087
1415	2089	2099	10	-2094	1039.5	1054.5	2097	2065	2061	2077	2085	2059
1416	2069	2078	9	-2073.5	1030	1043.5	2073	2033	2033	2035	2045	2025
1417	2053	2051	-2	-2052	1027.5	1024.5	2051	2005	2001	1991	2007	1995
1418	2039	2032	-7	-2035.5	1023	1012.5	2037	1993	1981	1969	1981	1979
1419	2035	2026	-9	-2030.5	1022	1008.5	2033	1991	1977	1953	1973	1976
1420	2032	2024	-8	-2028	1020	1008	2033	1993	1979	1955	1971	1976
1421	2029	2027	-2	-2028	1015.5	1012.5	2033	1993	1983	1959	1975	1975
1422	2029	2034	5	-2031.5	1012	1019.5	2035	1995	1983	1959	1975	1973
1423	2032	2035	3	-2033.5	1014.5	1019	2033	2000	1981	1965	1977	1973
1424	2030	2030	0	-2030	1015	1015	2033	2001	1981	1963	1983	1973
1425	2029	2030	1	-2029.5	1014	1015.5	2033	1995	1979	1963	1979	1977
1426	2033	2034	1	-2033.5	1016	1017.5	2035	2000	1975	1959	1979	1979
1427	2032	2034	2	-2033	1015	1018	2035	2001	1975	1963	1979	1983
1428	2035	2034	-1	-2034.5	1018	1016.5	2032	2000	1979	1963	1985	1977
1429	2033	2029	-4	-2031	1018.5	1012.5	2033	2001	1983	1961	1985	1977
1430	2033	2031	-2	-2032	1017.5	1014.5	2033	2001	1987	1965	1985	1979
1431	2033	2031	-2	-2032	1017.5	1014.5	2032	2001	1987	1963	1985	1979
1432	2037	2032	-5	-2034.5	1021	1013.5	2033	2003	1989	1969	1985	1979
1433	2039	2030	-9	-2034.5	1024	1010.5	2032	2001	1993	1961	1987	1977
1434	2035	2028	-7	-2031.5	1021	1010.5	2032	2001	1994	1961	1987	1977
1435	2037	2030	-7	-2033.5	1022	1011.5	2029	2003	1993	1961	1989	1979
1436	2033	2030	-3	-2031.5	1018	1013.5	2033	2003	1987	1963	1985	1981
1437	2039	2027	-12	-2033	1025.5	1007.5	2035	2003	1983	1961	1987	1983
1438	2037	2030	-7	-2033.5	1022	1011.5	2035	1997	1987	1968	1985	1983
1439	2035	2018	-17	-2026.5	1026	1000.5	2023	1977	1981	1963	1977	1963
1440	2017	1970	-47	-1993.5	1032	961.5	1991	1929	1939	1921	1927	1893
1441	1989	1894	-95	-1941.5	1042	899.5	1952	1863	1862	1840	1825	1795
1442	1953	1810	-143	-1881.5	1048	833.5	1931	1841	1798	1733	1709	1717
1443	1955	1831	-124	-1893	1039.5	853.5	2001	1947	1888	1757	1735	1825
1444	2043	1983	-60	-2013	1051.5	961.5	2139	2145	2137	1993	1979	2107
1445	2177	2206	29	-2191.5	1074	1117.5	2315	2384	2472	2365	2347	2469
1446	2337	2451	114	-2394	1111.5	1282.5	2497	2627	2838	2785	2759	2851
1447	2495	2701	206	-2598	1144.5	1453.5	2683	2879	3210	3216	3182	3225
1448	2657	2951	294	-2804	1181.5	1622.5	2864	3121	3573	3632	3587	3587
1449	2809	3186	377	-2997.5	1216	1781.5	2993	3269	3889	4021	3971	3881
1450	2897	3247	350	-3072	1273.5	1798.5	2929	3123	3891	4083	4087	3880
1451	2849	3107	258	-2978	1295.5	1682.5	2695	2755	3544	3993	3907	3579
1452	2707	2859	152	-2783	1277.5	1505.5	2385	2289	3016	3569	3491	3139
1453	2533	2571	38	-2552	1247.5	1304.5	2057	1827	2448	3017	3019	2691
1454	2353	2287	-66	-2320	1209.5	1110.5	1744	1381	1909	2465	2555	2285
1455	2187	2019	-168	-2103	1177.5	925.5	1429	937	1405	1961	2123	1927
1456	2029	1796	-233	-1912.5	1131	781.5	1233	697	997	1527	1755	1664
1457	1937	1714	-223	-1825.5	1080	745.5	1269	818	926	1309	1585	1589
1458	1917	1746	-171	-1831.5	1044	787.5	1477	1201	1153	1357	1601	1668
1459	1943	1846	-97	-1894.5	1020	874.5	1761	1664	1542	1571	1731	1813
1460	1981	1939	-42	-1960	1011.5	948.5	1953	1943	1848	1797	1867	1917
1461	2005	1990	-15	-1997.5	1010	987.5	2032	2033	1977	1913	1937	1955
1462	2017	2011	-6	-2014	1011.5	1002.5	2043	2037	1999	1945	1957	1957
1463	2019	2011	-8	-2015	1013.5	1001.5	2035	2023	1988	1941	1955	1947
1464	2037	2018	-19	-2027.5	1028	999.5	2037	2003	1973	1923	1947	1963
1465	2033	2016	-17	-2024.5	1025	999.5	2035	2003	1975	1925	1949	1965
1466	2033	2018	-15	-2025.5	1024	1001.5	2033	2007	1975	1927	1947	1963
1467	2037	2016	-21	-2026.5	1029	997.5	2033	2009	1978	1923	1953	1963
1468	2033	2016	-17	-2024.5	1025	999.5	2035	2009	1977	1925	1949	1965
1469	2035	2015	-20	-2025	1027.5	997.5	2037	2009	1975	1925	1951	1965
1470	2033	2016	-17	-2024.5	1025	999.5	2037	2009	1971	1929	1953	1969
1471	2037	2018	-19	-2027.5	1028	999.5	2041	2011	1975	1929	1953	1969
1472	2035	2015	-20	-2025	1027.5	997.5	2041	2013	1977	1927	1953	1969
1473	2037	2014	-23	-2025.5	1030	995.5	2041	2011	1978	1927	1955	1968
1474	2037	2014	-23	-2025.5	1030	995.5	2041	2011	1979	1929	1953	1965
1475	2033	2015	-18	-2024	1025.5	998.5	2043	2011	1979	1931	1951	1965
1476	2033	2012	-21	-2022.5	1027	995.5	2045	2013	1978	1933	1951	1963
1477	2033	2015	-18	-2024	1025.5	998.5	2043	2013	1977	1939	1947	1967
1478	2035	2014	-21	-2024.5	1028	996.5	2041	2013	1979	1937	1951	1971
1479	2037	2011	-26	-2024	1031.5	992.5	2041	2017	1979	1937	1953	1975
1480	2039	2014	-25	-2026.5	1032	994.5	2045	2017	1980	1933	1953	1977
1481	2035	2014	-21	-2024.5	1028	996.5	2043	2017	1982	1937	1953	1977
1482	2037	2018	-19	-2027.5	1028	999.5	2043	2017	1983	1941	1953	1973
1483	2037	2019	-18	-2028	1027.5	1000.5	2041	2017	1983	1937	1953	1973
1484	2041	2022	-19	-2031.5	1030	1001.5	2043	2017	1983	1939	1955	1973
1485	2041	2019	-22	-2030	1031.5	998.5	2045	2017	1981	1937	1957	1973
1486	2039	2022	-17	-2030.5	1028	1002.5	2045	2017	1983	1937	1958	1977
1487	2039	2020	-19	-2029.5	1029	1000.5	2045	2017	1989	1933	1961	1977
1488	2037	2018	-19	-2027.5	1028	999.5	2045	2017	1990	1937	1957	1977
1489	2043	2018	-25	-2030.5	1034	996.5	2045	2013	1989	1937	1957	1977
1490	2041	2018	-23	-2029.5	1032	997.5	2049	2013	1989	1941	1959	1979
1491	2043	2016	-27	-2029.5	1035	994.5	2051	2011	1989	1941	1961	1979
1492	2039	2020	-19	-2029.5	1029	1000.5	2049	2011	1993	1941	1965	1983
1493	2037	2019	-18	-2028	1027.5	1000.5	2049	2011	1993	1941	1969	1981
1494	2035	2018	-17	-2026.5	1026	1000.5	2049	2013	1993	1941	1963	1978
1495	2033	2020	-13	-2026.5	1023	1003.5	2051	2016	1992	1937	1963	1979
1496	2035	2019	-16	-2027	1025.5	1001.5	2053	2015	1994	1936	1961	1981
1497	2035	2019	-16	-2027	1025.5	1001.5	2053	2015	1993	1937	1961	1981
1498	2037	2022	-15	-2029.5	1026	1003.5	2049	2015	1992	1937	1965	1977
1499	2035	2019	-16	-2027	1025.5	1001.5	2049	2017	1991	1939	1963	1979
1500	2037	2022	-15	-2029.5	1026	1003.5	2047	2017	1993	1937	1961	1981
1501	2041	2022	-19	-2031.5	1030	1001.5	2047	2017	1997	1939	1965	1983
1502	2039	2020	-19	-2029.5	1029	1000.5	2047	2015	1993	1939	1963	1983
1503	2037	2019	-18	-2028	1027.5	1000.5	2047	2011	1995	1939	1969	1983
1504	2041	2024	-17	-2032.5	1029	1003.5	2051	2017	1995	1943	1967	1983
1505	2043	2025	-18	-2034	1030.5	1003.5	2053	2019	1997	1945	1971	1985
1506	2041	2031	-10	-2036	1025.5	1010.5	2065	2037	2010	1953	1979	1997
1507	2049	2054	5	-2051.5	1022	1029.5	2083	2065	2032	1979	2005	2021
1508	2064	2074	10	-2069	1027	1042	2111	2091	2058	2017	2039	2055
1509	2085	2098	13	-2091.5	1036	1055.5	2139	2115	2081	2059	2077	2089
1510	2102	2122	20	-2112	1041	1071	2163	2139	2117	2097	2113	2117
1511	2115	2142	27	-2128.5	1044	1084.5	2181	2155	2139	2129	2135	2139
1512	2129	2155	26	-2142	1051.5	1090.5	2195	2171	2157	2151	2157	2153
1513	2135	2170	35	-2152.5	1050	1102.5	2209	2185	2177	2173	2177	2163
1514	2144	2176	32	-2160	1056	1104	2217	2197	2186	2189	2193	2173
1515	2145	2176	31	-2160.5	1057	1103.5	2219	2199	2190	2201	2197	2177
1516	2149	2178	29	-2163.5	1060	1103.5	2221	2199	2190	2201	2197	2177
1517	2145	2178	33	-2161.5	1056	1105.5	2219	2195	2192	2197	2193	2173
1518	2147	2178	31	-2162.5	1058	1104.5	2213	2185	2187	2193	2193	2167
1519	2141	2169	28	-2155	1056.5	1098.5	2203	2173	2174	2179	2183	2157
1520	2137	2155	18	-2146	1059.5	1086.5	2187	2161	2159	2161	2165	2144
1521	2128	2139	11	-2133.5	1058.5	1075	2173	2147	2141	2137	2147	2128
1522	2111	2124	13	-2117.5	1049	1068.5	2153	2129	2119	2113	2121	2107
1523	2017	2005	-12	-2011	1014.5	996.5	2035	1987	1959	1911	1937	1937
1524	2016	2002	-14	-2009	1015	994	2037	1993	1957	1907	1939	1939
1525	2020	2003	-17	-2011.5	1018.5	993	2041	1991	1961	1907	1939	1941
1526	2019	2004	-15	-2011.5	1017	994.5	2037	1995	1961	1909	1937	1943
1527	2017	2006	-11	-2011.5	1014	997.5	2037	1993	1963	1911	1937	1939
1528	2017	2002	-15	-2009.5	1016	993.5	2035	1991	1966	1911	1941	1939
1529	2017	2003	-14	-2010	1015.5	994.5	2037	1991	1963	1915	1939	1939
1530	2017	2003	-14	-2010	1015.5	994.5	2035	1993	1963	1913	1941	1941
1531	2017	2007	-10	-2012	1013.5	998.5	2037	1997	1966	1917	1941	1943
1532	2021	2007	-14	-2014	1017.5	996.5	2037	1995	1969	1920	1941	1944
1533	2019	2007	-12	-2013	1015.5	997.5	2033	1993	1970	1919	1943	1949
1534	2019	2003	-16	-2011	1017.5	993.5	2033	1991	1971	1921	1945	1949
1535	2019	2003	-16	-2011	1017.5	993.5	2035	1993	1971	1921	1943	1947
1536	2019	2004	-15	-2011.5	1017	994.5	2035	2001	1968	1923	1947	1947
1537	2019	2004	-15	-2011.5	1017	994.5	2035	2003	1965	1917	1947	1947
1538	2017	2004	-13	-2010.5	1015	995.5	2035	2001	1965	1921	1943	1952
1539	2019	2004	-15	-2011.5	1017	994.5	2035	2000	1967	1921	1943	1952
1540	2017	2003	-14	-2010	1015.5	994.5	2037	1995	1969	1925	1947	1952
1541	2019	2002	-17	-2010.5	1018	992.5	2041	2001	1973	1925	1947	1952
1542	2017	2001	-16	-2009	1016.5	992.5	2039	2003	1975	1927	1947	1947
1543	2019	1999	-20	-2009	1019.5	989.5	2039	2001	1975	1925	1949	1947
1544	2021	1999	-22	-2010	1021.5	988.5	2041	2001	1974	1929	1947	1947
1545	2021	2002	-19	-2011.5	1020	991.5	2039	2000	1971	1927	1949	1947
1546	2025	2007	-18	-2016	1021.5	994.5	2037	1997	1971	1925	1949	1952
1547	2019	2007	-12	-2013	1015.5	997.5	2037	1997	1971	1931	1949	1953
1548	2021	2007	-14	-2014	1017.5	996.5	2041	1997	1969	1931	1951	1953
1549	2020	2009	-11	-2014.5	1015.5	999	2039	1995	1969	1936	1947	1952
1550	2019	2006	-13	-2012.5	1016	996.5	2041	1995	1967	1929	1949	1949
1551	2017	2006	-11	-2011.5	1014	997.5	2037	1995	1967	1931	1949	1953
1552	2021	2006	-15	-2013.5	1018	995.5	2035	2001	1969	1929	1951	1953
1553	2021	2004	-17	-2012.5	1019	993.5	2035	2003	1972	1933	1951	1955
1554	2025	2004	-21	-2014.5	1023	991.5	2037	2003	1973	1933	1953	1955
1555	2023	2002	-21	-2012.5	1022	990.5	2037	2001	1975	1931	1955	1956
1556	2021	2003	-18	-2012	1019.5	992.5	2041	2003	1976	1931	1953	1955
1557	2023	2002	-21	-2012.5	1022	990.5	2041	2001	1976	1929	1951	1957
1558	2019	2006	-13	-2012.5	1016	996.5	2041	2001	1976	1931	1953	1960
1559	2023	2007	-16	-2015	1019.5	995.5	2039	2001	1974	1933	1957	1959
1560	2025	2010	-15	-2017.5	1020	997.5	2035	2001	1975	1936	1957	1957
1561	2027	2008	-19	-2017.5	1023	994.5	2033	2001	1971	1937	1957	1961
1562	2027	2011	-16	-2019	1021.5	997.5	2035	2001	1969	1937	1957	1961
1563	2025	2014	-11	-2019.5	1018	1001.5	2037	2003	1971	1937	1955	1961
1564	2025	2010	-15	-2017.5	1020	997.5	2037	2003	1976	1937	1957	1959
1565	2023	2010	-13	-2016.5	1018	998.5	2035	2001	1978	1936	1955	1957
1566	2025	2010	-15	-2017.5	1020	997.5	2035	2003	1980	1937	1957	1963
1567	2017	2013	-4	-2015	1010.5	1004.5	2035	2001	1978	1939	1959	1965
1568	2019	2018	-1	-2018.5	1010	1008.5	2037	2005	1975	1941	1961	1961
1569	2017	2019	2	-2018	1007.5	1010.5	2037	2001	1973	1941	1961	1961
1570	2019	2016	-3	-2017.5	1011	1006.5	2041	2003	1974	1943	1965	1961
1571	2025	2012	-13	-2018.5	1019	999.5	2035	2005	1975	1941	1963	1968
1572	2023	2014	-9	-2018.5	1016	1002.5	2035	2005	1977	1939	1957	1969
1573	2025	2015	-10	-2020	1017.5	1002.5	2035	2005	1977	1941	1955	1965
1574	2029	2019	-10	-2024	1019.5	1004.5	2035	2005	1975	1945	1955	1963
1575	2033	2018	-15	-2025.5	1024	1001.5	2037	2009	1977	1945	1959	1965
1576	2033	2018	-15	-2025.5	1024	1001.5	2039	2009	1979	1943	1955	1965
1577	2033	2018	-15	-2025.5	1024	1001.5	2041	2009	1977	1947	1959	1969
1578	2029	2018	-11	-2023.5	1020	1003.5	2043	2011	1975	1949	1967	1965
1579	2032	2019	-13	-2025.5	1022.5	1003	2041	2003	1973	1953	1971	1968
1580	2027	2019	-8	-2023	1017.5	1005.5	2039	2003	1977	1952	1969	1969
1581	2025	2019	-6	-2022	1015.5	1006.5	2041	2001	1979	1953	1965	1968
1582	2027	2019	-8	-2023	1017.5	1005.5	2041	2005	1981	1949	1963	1969
1583	2025	2018	-7	-2021.5	1016	1005.5	2041	2007	1977	1949	1965	1969
1584	2225	2306	81	-2265.5	1072	1193.5	2289	2305	2384	2451	2375	2339
1585	2217	2294	77	-2255.5	1070	1185.5	2277	2291	2367	2437	2363	2325
1586	2209	2281	72	-2245	1068.5	1176.5	2272	2283	2345	2417	2345	2308
1587	2201	2270	69	-2235.5	1066	1169.5	2257	2273	2329	2391	2329	2297
1588	2195	2263	68	-2229	1063.5	1165.5	2249	2265	2317	2371	2315	2289
1589	2193	2258	65	-2225.5	1064	1161.5	2241	2257	2313	2357	2301	2283
1590	2187	2250	63	-2218.5	1062	1156.5	2233	2241	2307	2343	2291	2273
1591	2181	2234	53	-2207.5	1064	1143.5	2217	2219	2281	2329	2273	2247
1592	2165	2207	42	-2186	1061.5	1124.5	2189	2181	2235	2289	2231	2201
1593	2139	2169	30	-2154	1054.5	1099.5	2153	2133	2171	2215	2169	2139
1594	2107	2125	18	-2116	1044.5	1071.5	2113	2088	2100	2129	2099	2073
1595	2080	2083	3	-2081.5	1038.5	1043	2081	2049	2040	2047	2035	2019
1596	2057	2053	-4	-2055	1030.5	1024.5	2057	2023	1996	1991	1991	1983
1597	2035	2031	-4	-2033	1019.5	1013.5	2039	2003	1961	1947	1955	1963
1598	2025	2013	-12	-2019	1018.5	1000.5	2025	1987	1933	1915	1931	1941
1599	2013	1995	-18	-2004	1015.5	988.5	2017	1977	1913	1889	1911	1923
1600	2007	1987	-20	-1997	1013.5	983.5	2013	1971	1901	1877	1901	1917
1601	2005	1983	-22	-1994	1013.5	980.5	2009	1969	1901	1875	1897	1917
1602	2005	1987	-18	-1996	1011.5	984.5	2009	1969	1901	1875	1893	1920
1603	2005	1987	-18	-1996	1011.5	984.5	2009	1968	1901	1877	1901	1921
1604	2009	1987	-22	-1998	1015.5	982.5	2011	1969	1905	1879	1899	1920
1605	2009	1986	-23	-1997.5	1016	981.5	2011	1969	1907	1881	1899	1923
1606	2007	1987	-20	-1997	1013.5	983.5	2013	1971	1903	1883	1899	1921
1607	2009	1988	-21	-1998.5	1015	983.5	2017	1971	1903	1883	1903	1923
1608	2005	1994	-11	-1999.5	1008	991.5	2017	1969	1901	1885	1901	1921
1609	2011	1992	-19	-2001.5	1015	986.5	2017	1969	1904	1885	1907	1921
1610	2011	1991	-20	-2001	1015.5	985.5	2019	1969	1909	1883	1907	1921
1611	2011	1994	-17	-2002.5	1014	988.5	2017	1971	1909	1888	1911	1923
1612	2017	1994	-23	-2005.5	1020	985.5	2011	1973	1910	1883	1913	1925
1613	2016	1993	-23	-2004.5	1019.5	985	2009	1975	1907	1889	1917	1927
1614	2019	1990	-29	-2004.5	1024	980.5	2011	1975	1905	1889	1920	1925
1615	2017	1990	-27	-2003.5	1022	981.5	2017	1973	1904	1889	1915	1927
1616	2019	1988	-31	-2003.5	1025	978.5	2021	1973	1906	1891	1909	1925
1617	2015	1987	-28	-2001	1021.5	979.5	2021	1977	1911	1895	1907	1925
1618	2017	1987	-30	-2002	1023.5	978.5	2021	1979	1915	1895	1909	1927
1619	2013	1989	-24	-2001	1018.5	982.5	2021	1981	1911	1893	1913	1925
1620	2013	1990	-23	-2001.5	1018	983.5	2017	1979	1912	1895	1917	1927
1621	2017	1989	-28	-2003	1022.5	980.5	2019	1979	1913	1889	1915	1931
1622	2017	1991	-26	-2004	1021.5	982.5	2025	1977	1915	1889	1915	1933
1623	2019	1990	-29	-2004.5	1024	980.5	2025	1977	1917	1895	1913	1933
1624	2017	1992	-25	-2004.5	1021	983.5	2027	1977	1917	1899	1913	1935
1625	2017	1994	-23	-2005.5	1020	985.5	2025	1977	1919	1899	1917	1933
1626	2017	1995	-22	-2006	1019.5	986.5	2025	1977	1919	1905	1917	1929
1627	2020	1994	-26	-2007	1023	984	2025	1977	1917	1904	1917	1929
1628	2017	1998	-19	-2007.5	1018	989.5	2025	1979	1918	1905	1921	1929
1629	2019	2002	-17	-2010.5	1018	992.5	2023	1981	1917	1905	1921	1931
1630	2019	1998	-21	-2008.5	1020	988.5	2017	1981	1918	1905	1923	1931
1631	2021	1994	-27	-2007.5	1024	983.5	2019	1979	1917	1901	1921	1933
1632	2025	1995	-30	-2010	1027.5	982.5	2017	1979	1920	1899	1925	1933
1633	2021	1998	-23	-2009.5	1022	987.5	2021	1977	1921	1899	1927	1936
1634	2021	1998	-23	-2009.5	1022	987.5	2023	1977	1923	1901	1927	1935
1635	2019	1994	-25	-2006.5	1022	984.5	2023	1975	1923	1905	1925	1933
1636	2019	1994	-25	-2006.5	1022	984.5	2021	1977	1924	1909	1923	1933
1637	2017	1995	-22	-2006	1019.5	986.5	2021	1977	1923	1907	1925	1937
1638	2019	1999	-20	-2009	1019.5	989.5	2021	1983	1923	1907	1927	1937
1639	2023	2001	-22	-2012	1022.5	989.5	2023	1985	1923	1909	1931	1937
1640	2023	2002	-21	-2012.5	1022	990.5	2023	1985	1922	1907	1931	1936
1641	2025	2000	-25	-2012.5	1025	987.5	2023	1985	1925	1905	1931	1937
1642	2021	2001	-20	-2011	1020.5	990.5	2021	1983	1926	1909	1927	1939
1643	2025	2007	-18	-2016	1021.5	994.5	2035	2009	1977	1925	1939	1937
1644	2019	2006	-13	-2012.5	1016	996.5	2033	2001	1969	1921	1937	1936
1645	2017	2006	-11	-2011.5	1014	997.5	2033	1998	1963	1921	1937	1937
1646	2017	2006	-11	-2011.5	1014	997.5	2033	2001	1963	1921	1937	1937
1647	2016	2005	-11	-2010.5	1013.5	997	2033	2001	1965	1925	1937	1937
1648	2017	2004	-13	-2010.5	1015	995.5	2033	2001	1968	1925	1937	1937
1649	2019	2003	-16	-2011	1017.5	993.5	2032	2001	1969	1927	1933	1937
1650	2025	2006	-19	-2015.5	1022	993.5	2033	2003	1971	1929	1935	1939
1651	2025	2003	-22	-2014	1023.5	990.5	2032	2003	1973	1936	1936	1939
1652	2027	2004	-23	-2015.5	1025	990.5	2033	2005	1976	1937	1937	1944
1653	2027	2006	-21	-2016.5	1024	992.5	2033	2007	1979	1933	1937	1947
1654	2025	2010	-15	-2017.5	1020	997.5	2033	2009	1981	1937	1939	1947
1655	2025	2013	-12	-2019	1018.5	1000.5	2033	2009	1983	1939	1943	1949
1656	2025	2014	-11	-2019.5	1018	1001.5	2033	2011	1987	1943	1943	1952
1657	2029	2018	-11	-2023.5	1020	1003.5	2035	2013	1991	1949	1949	1955
1658	2027	2020	-7	-2023.5	1017	1006.5	2041	2017	1993	1959	1951	1959
1659	2035	2025	-10	-2030	1022.5	1007.5	2043	2017	1997	1961	1957	1963
1660	2035	2027	-8	-2031	1021.5	1009.5	2047	2021	2003	1969	1961	1968
1661	2043	2031	-12	-2037	1027.5	1009.5	2047	2023	2005	1975	1971	1976
1662	2043	2036	-7	-2039.5	1025	1014.5	2051	2029	2011	1985	1977	1981
1663	2045	2042	-3	-2043.5	1024	1019.5	2057	2037	2015	1995	1985	1987
1664	2045	2046	1	-2045.5	1022	1023.5	2059	2041	2021	2001	1991	1995
1665	2051	2050	-1	-2050.5	1026	1024.5	2061	2045	2025	2009	1995	2001
1666	2053	2055	2	-2054	1025.5	1028.5	2064	2053	2033	2013	2001	2007
1667	2053	2059	6	-2056	1023.5	1032.5	2067	2059	2042	2023	2007	2013
1668	2059	2066	7	-2062.5	1026	1036.5	2073	2065	2052	2033	2017	2021
1669	2059	2067	8	-2063	1025.5	1037.5	2081	2069	2061	2045	2023	2027
1670	2066	2075	9	-2070.5	1028.5	1042	2089	2077	2071	2059	2033	2037
1671	2073	2082	9	-2077.5	1032	1045.5	2097	2085	2083	2067	2039	2047
1672	2077	2091	14	-2084	1031.5	1052.5	2105	2089	2094	2081	2053	2057
1673	2083	2091	8	-2087	1037.5	1049.5	2111	2097	2102	2089	2061	2063
1674	2087	2100	13	-2093.5	1037	1056.5	2113	2105	2111	2103	2071	2071
1675	2091	2104	13	-2097.5	1039	1058.5	2117	2115	2120	2111	2083	2080
1676	2097	2110	13	-2103.5	1042	1061.5	2123	2121	2131	2129	2093	2091
1677	2105	2117	12	-2111	1046.5	1064.5	2131	2131	2143	2141	2105	2105
1678	2109	2126	17	-2117.5	1046	1071.5	2137	2139	2155	2165	2119	2121
1679	2117	2140	23	-2128.5	1047	1081.5	2145	2147	2169	2181	2133	2131
1680	2121	2147	26	-2134	1047.5	1086.5	2151	2160	2181	2193	2145	2145
1681	2129	2155	26	-2142	1051.5	1090.5	2161	2169	2192	2209	2155	2151
1682	2133	2163	30	-2148	1051.5	1096.5	2169	2177	2205	2217	2165	2161
1683	2137	2171	34	-2154	1051.5	1102.5	2177	2185	2219	2233	2177	2171
1684	2147	2187	40	-2167	1053.5	1113.5	2193	2203	2239	2257	2197	2189
1685	2161	2207	46	-2184	1057.5	1126.5	2208	2224	2264	2283	2225	2217
1686	2170	2225	55	-2197.5	1057.5	1140	2225	2241	2289	2315	2257	2247
1687	2179	2242	63	-2210.5	1058	1152.5	2239	2261	2320	2353	2288	2275
1688	2195	2258	63	-2226.5	1066	1160.5	2253	2277	2345	2385	2315	2297
1689	2203	2274	71	-2238.5	1066	1172.5	2265	2293	2371	2419	2335	2317
1690	2211	2291	80	-2251	1065.5	1185.5	2277	2309	2391	2448	2355	2336
1691	2225	2302	77	-2263.5	1074	1189.5	2283	2321	2409	2469	2379	2349
1692	2231	2304	73	-2267.5	1079	1188.5	2283	2315	2411	2481	2385	2352
1693	2231	2297	66	-2264	1082.5	1181.5	2277	2303	2402	2469	2377	2337
1694	2219	2294	75	-2256.5	1072	1184.5	2267	2289	2386	2449	2361	2315
1695	2211	2282	71	-2246.5	1070	1176.5	2259	2279	2369	2425	2343	2299
1696	2199	2272	73	-2235.5	1063	1172.5	2257	2273	2356	2405	2327	2288
1697	2193	2263	70	-2228	1061.5	1166.5	2251	2263	2343	2395	2315	2279
1698	2192	2255	63	-2223.5	1064.5	1159	2247	2257	2337	2384	2307	2272
1699	2187	2249	62	-2218	1062.5	1155.5	2235	2247	2329	2379	2299	2261
1700	2177	2227	50	-2202	1063.5	1138.5	2217	2217	2297	2345	2273	2229
1701	2155	2199	44	-2177	1055.5	1121.5	2181	2171	2241	2289	2219	2181
1702	2129	2154	25	-2141.5	1052	1089.5	2144	2123	2174	2209	2155	2119
1703	2091	2086	-5	-2088.5	1048	1040.5	2093	2059	2047	2064	2055	2039
1704	2069	2058	-11	-2063.5	1040	1023.5	2067	2029	2016	2017	2019	2005
1705	2053	2039	-14	-2046	1033.5	1012.5	2049	2009	1992	1981	1987	1983
1706	2047	2030	-17	-2038.5	1032	1006.5	2041	2001	1981	1955	1969	1973
1707	2041	2027	-14	-2034	1027.5	1006.5	2041	2001	1975	1953	1965	1973
1708	2045	2026	-19	-2035.5	1032	1003.5	2041	2001	1975	1955	1968	1977
1709	2048	2027	-21	-2037.5	1034.5	1003	2037	2001	1976	1957	1963	1977
1710	2043	2027	-16	-2035	1029.5	1005.5	2037	2003	1976	1955	1961	1977
1711	2041	2030	-11	-2035.5	1026	1009.5	2039	2001	1975	1957	1959	1973
1712	2045	2031	-14	-2038	1029.5	1008.5	2041	2001	1976	1959	1963	1971
1713	2045	2030	-15	-2037.5	1030	1007.5	2041	2003	1979	1959	1963	1971
1714	2041	2031	-10	-2036	1025.5	1010.5	2041	2001	1981	1961	1967	1973
1715	2045	2031	-14	-2038	1029.5	1008.5	2041	2001	1979	1963	1965	1971
1716	2041	2030	-11	-2035.5	1026	1009.5	2041	2001	1979	1969	1963	1969
1717	2045	2030	-15	-2037.5	1030	1007.5	2041	2001	1979	1963	1959	1969
1718	2043	2027	-16	-2035	1029.5	1005.5	2041	2001	1981	1968	1957	1973
1719	2047	2026	-21	-2036.5	1034	1002.5	2041	2003	1983	1969	1961	1977
1720	2045	2027	-18	-2036	1031.5	1004.5	2043	2001	1983	1969	1961	1977
1721	2045	2028	-17	-2036.5	1031	1005.5	2041	2001	1983	1969	1963	1977
1722	2047	2030	-17	-2038.5	1032	1006.5	2043	2001	1981	1969	1969	1979
1723	2047	2030	-17	-2038.5	1032	1006.5	2043	2001	1977	1969	1965	1979
1724	2043	2030	-13	-2036.5	1028	1008.5	2041	2005	1977	1971	1965	1979
1725	2045	2034	-11	-2039.5	1028	1011.5	2041	2005	1976	1975	1965	1977
1726	2043	2034	-9	-2038.5	1026	1012.5	2037	2001	1981	1975	1969	1975
1727	2037	2010	-27	-2023.5	1032	991.5	2017	1969	1956	1961	1943	1941
1728	2021	1947	-74	-1984	1047.5	936.5	1983	1915	1894	1897	1867	1861
1729	1987	1855	-132	-1921	1059.5	861.5	1939	1855	1816	1803	1753	1755
1730	1955	1796	-159	-1875.5	1057	818.5	1952	1875	1795	1717	1665	1736
1731	1985	1874	-111	-1929.5	1048	881.5	2051	2017	1953	1819	1779	1917
1732	2096	2058	-38	-2077	1067	1010	2209	2235	2250	2115	2087	2233
1733	2239	2287	48	-2263	1095.5	1167.5	2385	2480	2601	2517	2477	2609
1734	2403	2534	131	-2468.5	1136	1332.5	2569	2725	2971	2951	2891	2992
1735	2565	2790	225	-2677.5	1170	1507.5	2751	2973	3339	3377	3307	3367
1736	2721	3046	325	-2883.5	1198	1685.5	2929	3203	3699	3793	3713	3723
1737	2869	3235	366	-3052	1251.5	1800.5	2993	3249	3930	4083	4041	3929
1738	2905	3215	310	-3060	1297.5	1762.5	2853	3005	3788	4085	4049	3797
1739	2817	3022	205	-2919.5	1306	1613.5	2584	2587	3353	3859	3739	3425
1740	2657	2750	93	-2703.5	1282	1421.5	2261	2117	2795	3363	3287	2977
1741	2473	2464	-9	-2468.5	1241	1227.5	1937	1661	2229	2807	2811	2545
1742	2299	2186	-113	-2242.5	1206	1036.5	1627	1219	1707	2273	2363	2155
1743	2133	1922	-211	-2027.5	1172	855.5	1329	807	1215	1793	1943	1809
1744	1993	1739	-254	-1866	1123.5	742.5	1219	711	922	1415	1635	1613
1745	1927	1707	-220	-1817	1073.5	743.5	1331	951	981	1313	1543	1605
1746	1925	1778	-147	-1851.5	1036	815.5	1585	1389	1282	1431	1611	1719
1747	1963	1890	-73	-1926.5	1018	908.5	1849	1801	1671	1667	1761	1857
1748	2001	1965	-36	-1983	1018.5	964.5	1993	2001	1913	1857	1873	1937
1749	2021	1999	-22	-2010	1021.5	988.5	2043	2043	1992	1939	1921	1960
1750	2027	2008	-19	-2017.5	1023	994.5	2047	2035	1995	1953	1927	1955
1751	2027	2010	-17	-2018.5	1022	996.5	2043	2019	1981	1941	1925	1947
1752	2023	2010	-13	-2016.5	1018	998.5	2041	2009	1968	1929	1923	1937
1753	2021	2003	-18	-2012	1019.5	992.5	2035	2003	1961	1921	1915	1937
1754	2021	2002	-19	-2011.5	1020	991.5	2032	2009	1962	1921	1917	1940
1755	2019	2002	-17	-2010.5	1018	992.5	2029	2007	1962	1923	1915	1940
1756	2021	2003	-18	-2012	1019.5	992.5	2027	2009	1962	1928	1915	1941
1757	2019	2006	-13	-2012.5	1016	996.5	2025	2009	1963	1925	1915	1943
1758	2025	2007	-18	-2016	1021.5	994.5	2025	2009	1961	1931	1917	1945
1759	2023	2006	-17	-2014.5	1020	994.5	2027	2007	1964	1936	1923	1948
1760	2025	2007	-18	-2016	1021.5	994.5	2027	2009	1965	1937	1927	1947
1761	2025	2011	-14	-2018	1019.5	998.5	2029	2013	1967	1939	1929	1945
1762	2032	2014	-18	-2023	1025	998	2033	2013	1969	1941	1931	1947
1763	2032	2011	-21	-2021.5	1026.5	995	2037	2011	1973	1945	1935	1953
1764	2035	2018	-17	-2026.5	1026	1000.5	2033	1995	1981	1941	1955	1966
1765	2035	2019	-16	-2027	1025.5	1001.5	2032	1997	1981	1943	1953	1965
1766	2033	2021	-12	-2027	1022.5	1004.5	2033	2000	1981	1941	1955	1969
1767	2035	2022	-13	-2028.5	1024	1004.5	2033	2003	1983	1939	1955	1969
1768	2035	2019	-16	-2027	1025.5	1001.5	2035	2003	1981	1943	1957	1971
1769	2035	2018	-17	-2026.5	1026	1000.5	2037	2003	1983	1945	1955	1973
1770	2033	2019	-14	-2026	1023.5	1002.5	2037	2003	1979	1941	1953	1977
1771	2035	2022	-13	-2028.5	1024	1004.5	2041	2003	1980	1941	1955	1973
1772	2033	2022	-11	-2027.5	1022	1005.5	2039	2001	1981	1941	1957	1971
1773	2033	2022	-11	-2027.5	1022	1005.5	2037	2001	1979	1937	1961	1971
1774	2029	2022	-7	-2025.5	1018	1007.5	2033	2001	1979	1943	1961	1969
1775	2029	2023	-6	-2026	1017.5	1008.5	2033	2001	1979	1943	1961	1975
1776	2027	2023	-4	-2025	1015.5	1009.5	2033	2001	1983	1939	1963	1977
1777	2032	2026	-6	-2029	1019	1010	2035	2001	1983	1941	1959	1971
1778	2032	2026	-6	-2029	1019	1010	2037	2003	1983	1939	1961	1973
1779	2029	2022	-7	-2025.5	1018	1007.5	2037	2009	1983	1941	1961	1975
1780	2033	2023	-10	-2028	1021.5	1006.5	2033	2009	1983	1941	1961	1977
1781	2033	2024	-9	-2028.5	1021	1007.5	2035	2007	1989	1945	1963	1977
